#Wave		#Intensity
3550.265625	274015.562500
3549.033203	273701.781250
3547.801758	273714.656250
3546.569336	273053.375000
3545.335938	273041.906250
3544.103516	273081.312500
3542.870117	273686.531250
3541.636719	275030.125000
3540.403320	274306.031250
3539.168945	273867.000000
3537.934570	274026.031250
3536.700195	274992.125000
3535.465820	274205.531250
3534.230469	273004.625000
3532.995117	273624.812500
3531.759766	273582.437500
3530.524414	273219.156250
3529.288086	273241.812500
3528.051758	273333.437500
3526.815430	274409.437500
3525.578125	274385.031250
3524.340820	273904.125000
3523.103516	273887.906250
3521.866211	275096.593750
3520.627930	275637.625000
3519.389648	275122.281250
3518.151367	274001.156250
3516.913086	275903.625000
3515.673828	274039.281250
3514.434570	275110.468750
3513.194336	275401.562500
3511.955078	276366.656250
3510.714844	274382.218750
3509.474609	275508.968750
3508.234375	276756.562500
3506.993164	276858.718750
3505.751953	277510.875000
3504.510742	276739.312500
3503.268555	277031.312500
3502.027344	276674.406250
3500.785156	278251.343750
3499.541992	277074.093750
3498.299805	277337.375000
3497.056641	277170.406250
3495.813477	279084.906250
3494.569336	278350.406250
3493.326172	278372.937500
3492.082031	277455.250000
3490.836914	278395.656250
3489.592773	279646.187500
3488.347656	278765.031250
3487.102539	279609.718750
3485.857422	279631.718750
3484.611328	279454.250000
3483.365234	279885.156250
3482.119141	280315.875000
3480.873047	278116.593750
3479.625977	279904.312500
3478.378906	279487.281250
3477.131836	280233.500000
3475.883789	280921.031250
3474.635742	279717.468750
3473.387695	280979.906250
3472.139648	280669.468750
3470.890625	280684.812500
3469.641602	280921.156250
3468.392578	280695.250000
3467.143555	280802.875000
3465.893555	281609.312500
3464.643555	280875.312500
3463.392578	280460.781250
3462.142578	280088.562500
3460.891602	280816.062500
3459.640625	280490.000000
3458.388672	282304.156250
3457.137695	282312.718750
3455.885742	281675.687500
3454.632813	282411.937500
3453.380859	282520.593750
3452.127930	282534.968750
3450.875000	281301.406250
3449.621094	281644.437500
3448.368164	282738.125000
3447.114258	281419.125000
3445.859375	281649.750000
3444.605469	281884.218750
3443.350586	282780.718750
3442.095703	282370.781250
3440.840820	282442.875000
3439.584961	283488.500000
3438.329102	283614.218750
3437.073242	283947.687500
3435.816406	282399.000000
3434.559570	283393.656250
3433.302734	282213.156250
3432.045898	281610.125000
3430.788086	281867.656250
3429.530273	281089.281250
3428.272461	282166.781250
3427.014648	281843.437500
3425.755859	281594.000000
3424.497070	282700.500000
3423.238281	281282.750000
3421.978516	281978.187500
3420.718750	282645.375000
3419.458984	282377.937500
3418.198242	281913.437500
3416.938477	282717.500000
3415.677734	282710.937500
3414.416016	282718.281250
3413.155273	281354.500000
3411.893555	282494.093750
3410.631836	283060.312500
3409.369141	282761.187500
3408.106445	282134.093750
3406.843750	282429.593750
3405.581055	280437.500000
3404.317383	281587.531250
3403.053711	280605.562500
3401.790039	282521.562500
3400.526367	281458.375000
3399.261719	279708.750000
3397.997070	279754.000000
3396.732422	280436.187500
3395.466797	279949.531250
3394.201172	281365.125000
3392.935547	280926.031250
3391.668945	279965.718750
3390.403320	279832.312500
3389.136719	280493.531250
3387.869141	280873.125000
3386.602539	280521.625000
3385.334961	281053.437500
3384.067383	280157.531250
3382.798828	281136.468750
3381.530273	280909.781250
3380.261719	281415.187500
3378.993164	281220.125000
3377.723633	279923.562500
3376.454102	280189.531250
3375.184570	280291.250000
3373.915039	279537.187500
3372.644531	280340.406250
3371.374023	279120.375000
3370.102539	279619.125000
3368.832031	280706.031250
3367.560547	279918.968750
3366.288086	280760.531250
3365.016602	279995.468750
3363.744141	279017.656250
3362.471680	278564.875000
3361.198242	278887.250000
3359.925781	279171.968750
3358.652344	279746.281250
3357.377930	279802.062500
3356.104492	279156.375000
3354.830078	280573.250000
3353.555664	279978.843750
3352.280273	279695.750000
3351.005859	278810.406250
3349.730469	279474.218750
3348.454102	281316.218750
3347.178711	280566.750000
3345.902344	281609.187500
3344.625000	281176.468750
3343.348633	280604.375000
3342.071289	281655.812500
3340.793945	280445.218750
3339.516602	280930.406250
3338.238281	279451.375000
3336.959961	280674.812500
3335.681641	280647.156250
3334.402344	280711.750000
3333.123047	281506.218750
3331.843750	281299.812500
3330.564453	282038.812500
3329.284180	280563.593750
3328.003906	281478.812500
3326.723633	282179.937500
3325.442383	282471.156250
3324.161133	280663.968750
3322.879883	280420.625000
3321.597656	282024.000000
3320.316406	280836.718750
3319.034180	281640.593750
3317.750977	282586.968750
3316.467773	282241.562500
3315.184570	282784.312500
3313.901367	283109.750000
3312.618164	282338.125000
3311.333984	283103.250000
3310.049805	284297.968750
3308.764648	283338.937500
3307.479492	283847.343750
3306.194336	283503.968750
3304.909180	283049.437500
3303.623047	283051.843750
3302.336914	282798.593750
3301.050781	283552.218750
3299.764648	282799.468750
3298.477539	283470.812500
3297.190430	283402.781250
3295.902344	283980.031250
3294.614258	285198.187500
3293.326172	284523.718750
3292.038086	284324.875000
3290.749023	284696.750000
3289.459961	285233.937500
3288.170898	285107.000000
3286.881836	284509.062500
3285.591797	285442.781250
3284.301758	286146.500000
3283.010742	285511.687500
3281.719727	286292.812500
3280.428711	286929.656250
3279.137695	286310.531250
3277.845703	286527.281250
3276.553711	286872.125000
3275.261719	286344.656250
3273.969727	286932.062500
3272.676758	287018.250000
3271.383789	287618.781250
3270.089844	286711.125000
3268.796875	287701.343750
3267.502930	288338.031250
3266.208008	286686.062500
3264.914063	286124.437500
3263.619141	285667.687500
3262.323242	287112.281250
3261.028320	287579.687500
3259.732422	287297.156250
3258.436523	287502.781250
3257.139648	286893.156250
3255.842773	287137.406250
3254.545898	287714.406250
3253.249023	288163.437500
3251.951172	288482.593750
3250.653320	287761.093750
3249.355469	288424.312500
3248.057617	287277.781250
3246.758789	287051.718750
3245.458984	287967.687500
3244.160156	287691.250000
3242.860352	287544.343750
3241.560547	286590.343750
3240.260742	288391.500000
3238.959961	287943.343750
3237.659180	287358.375000
3236.358398	287404.468750
3235.056641	287300.031250
3233.754883	287081.875000
3232.453125	288062.875000
3231.150391	287503.437500
3229.847656	286971.187500
3228.544922	285976.812500
3227.242188	287519.437500
3225.938477	288516.406250
3224.634766	286655.906250
3223.330078	287681.406250
3222.026367	287863.593750
3220.721680	287002.906250
3219.416016	286490.750000
3218.111328	286232.593750
3216.805664	287201.093750
3215.500000	286856.375000
3214.193359	287092.093750
3212.886719	286203.750000
3211.580078	287202.000000
3210.273438	286502.187500
3208.965820	286806.750000
3207.658203	286543.000000
3206.349609	287482.531250
3205.041992	287191.843750
3203.733398	285721.593750
3202.423828	286697.031250
3201.115234	286450.687500
3199.805664	288029.218750
3198.496094	286561.937500
3197.185547	287371.343750
3195.875000	287019.625000
3194.564453	287005.062500
3193.253906	286408.468750
3191.942383	286619.843750
3190.630859	287567.875000
3189.318359	286690.218750
3188.006836	286249.031250
3186.694336	286343.500000
3185.380859	285766.781250
3184.068359	286182.375000
3182.754883	286397.062500
3181.440430	285381.250000
3180.126953	286081.125000
3178.812500	286160.031250
3177.498047	285568.718750
3176.182617	286042.750000
3174.867188	285713.093750
3173.551758	286345.187500
3172.236328	284163.406250
3170.919922	284473.187500
3169.603516	284140.281250
3168.286133	283996.218750
3166.969727	284225.687500
3165.652344	283607.187500
3164.333984	284131.843750
3163.016602	283507.875000
3161.698242	283662.875000
3160.378906	283102.062500
3159.060547	283645.250000
3157.741211	283860.906250
3156.421875	283732.125000
3155.101563	282895.937500
3153.781250	283461.343750
3152.460938	284034.093750
3151.140625	283620.187500
3149.819336	283955.062500
3148.498047	284656.343750
3147.175781	284690.718750
3145.854492	284070.000000
3144.532227	284161.343750
3143.208984	283497.312500
3141.885742	282623.000000
3140.562500	283165.968750
3139.239258	282519.625000
3137.916016	282053.656250
3136.591797	282626.656250
3135.266602	281753.375000
3133.942383	282477.656250
3132.617188	282737.500000
3131.291992	281682.937500
3129.965820	282798.531250
3128.639648	282236.531250
3127.313477	282829.125000
3125.987305	283184.906250
3124.660156	283582.125000
3123.333008	283865.656250
3122.004883	283776.562500
3120.676758	282171.500000
3119.348633	283337.593750
3118.020508	282687.468750
3116.691406	283067.031250
3115.362305	283795.781250
3114.033203	284673.281250
3112.703125	283842.125000
3111.373047	284364.375000
3110.042969	283824.125000
3108.711914	284332.875000
3107.380859	284237.906250
3106.049805	283892.187500
3104.717773	283442.937500
3103.386719	282633.937500
3102.053711	284364.937500
3100.721680	283495.750000
3099.388672	283410.343750
3098.055664	284140.125000
3096.721680	283743.968750
3095.387695	284430.000000
3094.053711	285209.750000
3092.719727	285170.906250
3091.384766	284671.312500
3090.049805	284758.500000
3088.713867	285411.375000
3087.378906	285768.906250
3086.041992	287153.875000
3084.706055	285696.312500
3083.369141	286547.281250
3082.032227	286076.156250
3080.695313	286665.687500
3079.357422	287101.000000
3078.019531	287590.531250
3076.681641	287599.625000
3075.342773	287854.312500
3074.003906	287418.968750
3072.665039	287780.343750
3071.325195	287892.312500
3069.985352	288950.281250
3068.645508	289031.906250
3067.304688	290210.718750
3065.963867	290982.750000
3064.623047	291106.781250
3063.282227	291464.593750
3061.940430	290907.437500
3060.597656	290892.906250
3059.255859	289427.312500
3057.913086	290424.437500
3056.570313	289084.812500
3055.226563	291099.843750
3053.882813	291320.468750
3052.539063	290807.000000
3051.195313	291346.875000
3049.850586	291193.843750
3048.505859	291496.250000
3047.160156	291878.750000
3045.814453	291406.625000
3044.468750	290438.625000
3043.123047	291645.093750
3041.776367	290960.781250
3040.429688	289971.093750
3039.082031	291568.031250
3037.735352	290377.437500
3036.387695	290045.906250
3035.039063	291187.281250
3033.690430	291339.656250
3032.341797	291573.781250
3030.993164	291718.500000
3029.643555	291507.781250
3028.293945	292377.656250
3026.944336	291912.125000
3025.593750	291573.187500
3024.243164	291548.437500
3022.891602	292222.250000
3021.541016	290809.750000
3020.189453	292879.843750
3018.836914	292951.250000
3017.485352	293326.968750
3016.132813	293875.062500
3014.779297	293879.281250
3013.425781	294977.812500
3012.072266	294926.062500
3010.718750	295654.812500
3009.364258	295615.812500
3008.009766	295015.343750
3006.655273	295571.187500
3005.299805	294491.218750
3003.944336	295317.218750
3002.588867	294235.906250
3001.232422	295542.718750
2999.875977	294672.781250
2998.519531	293851.312500
2997.162109	294441.406250
2995.804688	293731.281250
2994.447266	294720.343750
2993.088867	294047.406250
2991.730469	294638.593750
2990.372070	294130.312500
2989.012695	296974.343750
2987.653320	297220.906250
2986.293945	297474.687500
2984.933594	298641.843750
2983.573242	299044.562500
2982.212891	298500.718750
2980.851563	300609.125000
2979.490234	300738.093750
2978.128906	300942.531250
2976.766602	301498.875000
2975.404297	302930.062500
2974.041992	303305.031250
2972.678711	304151.250000
2971.315430	304474.156250
2969.952148	304263.062500
2968.587891	304859.937500
2967.223633	306806.875000
2965.859375	307546.250000
2964.494141	310348.500000
2963.128906	310579.156250
2961.763672	309592.906250
2960.397461	311745.718750
2959.031250	311860.031250
2957.665039	312505.093750
2956.297852	311978.250000
2954.930664	312670.625000
2953.563477	312901.937500
2952.195313	312384.468750
2950.827148	313687.031250
2949.458008	314405.687500
2948.089844	315208.343750
2946.720703	317277.281250
2945.350586	318536.968750
2943.981445	321020.000000
2942.610352	322153.531250
2941.240234	325273.593750
2939.869141	327379.593750
2938.498047	329270.343750
2937.126953	331672.593750
2935.754883	332721.531250
2934.382813	333329.062500
2933.009766	333078.593750
2931.637695	333104.281250
2930.264648	332888.625000
2928.890625	333341.906250
2927.516602	334295.531250
2926.142578	334454.093750
2924.768555	334654.562500
2923.393555	333905.531250
2922.018555	333401.406250
2920.642578	333488.718750
2919.266602	330797.437500
2917.890625	332610.718750
2916.514648	330212.656250
2915.137695	328430.062500
2913.760742	329825.125000
2912.382813	329601.375000
2911.004883	328479.593750
2909.626953	329146.812500
2908.248047	328928.750000
2906.869141	329413.437500
2905.490234	329078.875000
2904.111328	330624.000000
2902.731445	330283.750000
2901.350586	330767.500000
2899.970703	331461.906250
2898.589844	331065.250000
2897.208984	331090.406250
2895.827148	332111.125000
2894.445313	331289.468750
2893.063477	331681.250000
2891.680664	333309.218750
2890.297852	332030.343750
2888.914063	332269.125000
2887.531250	335366.968750
2886.147461	336450.000000
2884.762695	335896.812500
2883.378906	337555.593750
2881.993164	336978.781250
2880.608398	338739.718750
2879.222656	337642.906250
2877.836914	334626.750000
2876.451172	332903.093750
2875.064453	332306.187500
2873.677734	329840.000000
2872.290039	329312.843750
2870.902344	328840.156250
2869.514648	327242.781250
2868.126953	325317.093750
2866.738281	324992.062500
2865.348633	324513.531250
2863.959961	323888.843750
2862.570313	322780.343750
2861.180664	322687.250000
2859.790039	320916.906250
2858.399414	321638.281250
2857.008789	321810.718750
2855.617188	320833.781250
2854.225586	322117.312500
2852.833984	322356.093750
2851.441406	323555.593750
2850.048828	325307.812500
2848.655273	324442.781250
2847.262695	323579.937500
2845.869141	320837.218750
2844.474609	318727.812500
2843.080078	314720.250000
2841.685547	311933.000000
2840.291016	305739.312500
2838.895508	300681.843750
2837.500000	297876.593750
2836.103516	295640.843750
2834.707031	294112.562500
2833.310547	292022.531250
2831.913086	291304.312500
2830.515625	289986.468750
2829.118164	289651.531250
2827.719727	287212.625000
2826.321289	287054.375000
2824.922852	288155.843750
2823.523438	285772.812500
2822.124023	284870.625000
2820.724609	285756.562500
2819.324219	286104.218750
2817.923828	284091.312500
2816.523438	283769.031250
2815.122070	281970.812500
2813.720703	282630.562500
2812.318359	283087.656250
2810.916016	282724.625000
2809.513672	281925.125000
2808.111328	282371.218750
2806.708008	282169.531250
2805.303711	281987.593750
2803.900391	282749.718750
2802.496094	282326.375000
2801.090820	281905.000000
2799.686523	281239.031250
2798.281250	281912.937500
2796.875000	280477.656250
2795.469727	281544.093750
2794.062500	281144.687500
2792.656250	281758.968750
2791.249023	280537.281250
2789.841797	281358.218750
2788.434570	280816.500000
2787.026367	281358.812500
2785.617188	281387.593750
2784.208984	281781.562500
2782.799805	280974.750000
2781.390625	281048.031250
2779.980469	281571.656250
2778.570313	280961.218750
2777.160156	282575.406250
2775.749023	281166.125000
2774.337891	281372.531250
2772.925781	282060.656250
2771.514648	280796.468750
2770.101563	281152.031250
2768.689453	280729.093750
2767.276367	281301.125000
2765.863281	281094.968750
2764.449219	281867.218750
2763.035156	281527.843750
2761.621094	282365.187500
2760.206055	281236.250000
2758.791016	282043.062500
2757.375977	283874.468750
2755.959961	282020.781250
2754.543945	281802.218750
2753.127930	281727.250000
2751.710938	281792.281250
2750.293945	282608.187500
2748.875977	283478.593750
2747.458008	281990.468750
2746.040039	282934.875000
2744.622070	283478.875000
2743.203125	283529.031250
2741.783203	283656.937500
2740.364258	284032.312500
2738.944336	282584.968750
2737.523438	283630.125000
2736.103516	283241.875000
2734.681641	283933.031250
2733.260742	284083.437500
2731.838867	284399.718750
2730.416992	284256.875000
2728.994141	285365.187500
2727.572266	284359.437500
2726.148438	283646.937500
2724.725586	283141.062500
2723.301758	283074.375000
2721.876953	283959.406250
2720.453125	283325.125000
2719.027344	284146.156250
2717.602539	283978.781250
2716.176758	284123.093750
2714.750977	284563.031250
2713.325195	283142.625000
2711.898438	283169.062500
2710.470703	282057.437500
2709.043945	283453.968750
2707.616211	283374.750000
2706.187500	283009.062500
2704.759766	282736.625000
2703.331055	282959.718750
2701.901367	282676.875000
2700.471680	283528.406250
2699.041992	281456.687500
2697.612305	282536.218750
2696.181641	282346.593750
2694.750977	281139.687500
2693.319336	279800.062500
2691.887695	282190.218750
2690.456055	280382.937500
2689.023438	281080.656250
2687.590820	280481.562500
2686.157227	279655.062500
2684.723633	280483.687500
2683.290039	281108.812500
2681.856445	279866.125000
2680.421875	280359.781250
2678.987305	279973.281250
2677.551758	280172.812500
2676.116211	279922.843750
2674.680664	280667.625000
2673.244141	280061.093750
2671.807617	280461.218750
2670.370117	280288.187500
2668.932617	280169.343750
2667.495117	280244.312500
2666.057617	279729.281250
2664.619141	280601.718750
2663.179688	278853.406250
2661.741211	278703.531250
2660.301758	278740.281250
2658.861328	278084.906250
2657.420898	277363.625000
2655.980469	278395.468750
2654.540039	278644.656250
2653.098633	278432.187500
2651.656250	278877.906250
2650.214844	278447.875000
2648.772461	278689.718750
2647.329102	279637.750000
2645.886719	278797.281250
2644.443359	279784.750000
2642.999023	278704.687500
2641.554688	278541.062500
2640.110352	279715.437500
2638.665039	280123.093750
2637.219727	279120.343750
2635.774414	279434.156250
2634.328125	278300.093750
2632.881836	278820.406250
2631.435547	277886.531250
2629.988281	279136.843750
2628.541016	279063.406250
2627.092773	278228.906250
2625.644531	280680.968750
2624.196289	279730.312500
2622.747070	280330.562500
2621.297852	279532.843750
2619.848633	280179.531250
2618.398438	280157.718750
2616.948242	279651.281250
2615.497070	279530.906250
2614.045898	279628.531250
2612.594727	278294.187500
2611.142578	279847.718750
2609.690430	278531.218750
2608.238281	279180.093750
2606.785156	278448.312500
2605.332031	278982.812500
2603.878906	279247.687500
2602.424805	278321.281250
2600.969727	278782.843750
2599.515625	277363.500000
2598.060547	277219.593750
2596.604492	278519.125000
2595.148438	278437.000000
2593.692383	279377.000000
2592.236328	278839.718750
2590.779297	278437.062500
2589.322266	279024.906250
2587.864258	277768.250000
2586.406250	279115.125000
2584.948242	278112.031250
2583.489258	277494.812500
2582.030273	276604.406250
2580.570313	275879.468750
2579.110352	277513.812500
2577.650391	277581.406250
2576.189453	277411.750000
2574.728516	276206.218750
2573.267578	277180.875000
2571.805664	276257.562500
2570.343750	276987.906250
2568.880859	276912.875000
2567.417969	276252.781250
2565.955078	275690.750000
2564.491211	276331.187500
2563.027344	274860.656250
2561.563477	276032.312500
2560.098633	276511.000000
2558.633789	276391.500000
2557.167969	275924.343750
2555.702148	274820.375000
2554.236328	274314.406250
2552.769531	275078.625000
2551.302734	275608.000000
2549.834961	274924.218750
2548.368164	274885.531250
2546.899414	274176.562500
2545.431641	274666.218750
2543.962891	274234.468750
2542.493164	273162.250000
2541.024414	273579.937500
2539.553711	274053.781250
2538.083984	273639.593750
2536.613281	272430.218750
2535.142578	272880.000000
2533.670898	272589.187500
2532.199219	271742.468750
2530.727539	273073.531250
2529.254883	273321.437500
2527.782227	272780.156250
2526.308594	271712.687500
2524.834961	272052.656250
2523.361328	271951.375000
2521.886719	272595.781250
2520.412109	272627.125000
2518.936523	272740.093750
2517.461914	272924.437500
2515.985352	272037.187500
2514.509766	272985.000000
2513.033203	271079.906250
2511.555664	271276.250000
2510.078125	271260.125000
2508.600586	270775.156250
2507.123047	271701.562500
2505.644531	271473.000000
2504.165039	272430.968750
2502.686523	271598.218750
2501.207031	271461.406250
2499.726563	271095.687500
2498.246094	271389.687500
2496.765625	271232.625000
2495.284180	271580.625000
2493.802734	270706.843750
2492.321289	272099.843750
2490.838867	271338.093750
2489.356445	271832.906250
2487.873047	272087.062500
2486.389648	271723.468750
2484.906250	272018.093750
2483.421875	271285.968750
2481.937500	271069.843750
2480.453125	270678.031250
2478.967773	270539.906250
2477.482422	270244.656250
2475.996094	271294.093750
2474.509766	270574.906250
2473.023438	270977.062500
2471.536133	271210.187500
2470.047852	271856.593750
2468.560547	270965.812500
2467.072266	270831.031250
2465.583984	270414.718750
2464.094727	271149.906250
2462.605469	272017.812500
2461.115234	271593.000000
2459.625000	270666.437500
2458.134766	271045.375000
2456.643555	271567.218750
2455.152344	271011.562500
2453.661133	271496.062500
2452.168945	271243.468750
2450.675781	271026.281250
2449.183594	271607.843750
2447.690430	270904.843750
2446.196289	269970.250000
2444.702148	270153.375000
2443.208008	270158.343750
2441.713867	268969.343750
2440.218750	269453.000000
2438.722656	270431.500000
2437.226563	269427.843750
2435.730469	270063.593750
2434.234375	270066.718750
2432.737305	269843.500000
2431.239258	271127.281250
2429.742188	268907.937500
2428.244141	269445.718750
2426.745117	268892.781250
2425.246094	268259.750000
2423.747070	268648.218750
2422.247070	268256.500000
2420.747070	267433.281250
2419.247070	267629.187500
2417.746094	268211.312500
2416.244141	268341.656250
2414.743164	268065.718750
2413.241211	267520.875000
2411.738281	267303.750000
2410.235352	267078.312500
2408.732422	267642.812500
2407.229492	266757.968750
2405.725586	267744.468750
2404.220703	265683.687500
2402.715820	267744.156250
2401.210938	266948.468750
2399.706055	267905.437500
2398.200195	266231.656250
2396.693359	266716.687500
2395.186523	266215.187500
2393.679688	266934.781250
2392.172852	267107.781250
2390.665039	266494.968750
2389.156250	267328.687500
2387.647461	265993.968750
2386.138672	265884.156250
2384.629883	265571.500000
2383.120117	265661.343750
2381.609375	266550.562500
2380.099609	265299.062500
2378.588867	265428.656250
2377.077148	265709.343750
2375.565430	265030.093750
2374.053711	264822.625000
2372.541016	264329.812500
2371.028320	263563.437500
2369.514648	264869.187500
2368.000977	265008.437500
2366.487305	265184.093750
2364.972656	263843.062500
2363.458008	265074.375000
2361.943359	265052.656250
2360.427734	264255.812500
2358.911133	264131.625000
2357.395508	265325.062500
2355.878906	264136.500000
2354.361328	264930.593750
2352.843750	264797.968750
2351.326172	263898.093750
2349.807617	263497.937500
2348.289063	264036.718750
2346.769531	262407.343750
2345.250000	262222.562500
2343.730469	263530.781250
2342.209961	262703.468750
2340.689453	262670.531250
2339.168945	262913.156250
2337.647461	262251.562500
2336.125977	264044.531250
2334.603516	263260.906250
2333.081055	261943.531250
2331.557617	262299.625000
2330.034180	262395.187500
2328.510742	261752.703125
2326.986328	262404.937500
2325.461914	262054.140625
2323.937500	261277.203125
2322.412109	261616.312500
2320.885742	260816.812500
2319.359375	260025.906250
2317.833008	261218.375000
2316.306641	260935.687500
2314.779297	260705.703125
2313.250977	261709.703125
2311.723633	259814.015625
2310.195313	260952.328125
2308.666016	260904.718750
2307.136719	260167.750000
2305.607422	261984.343750
2304.077148	260199.171875
2302.546875	260461.671875
2301.015625	260143.578125
2299.484375	259869.875000
2297.953125	259125.968750
2296.420898	259299.906250
2294.888672	259594.921875
2293.355469	258140.921875
2291.822266	259117.046875
2290.289063	258878.265625
2288.754883	258168.343750
2287.219727	258683.984375
2285.685547	258707.078125
2284.150391	259109.453125
2282.614258	258154.937500
2281.078125	258057.156250
2279.541992	258795.843750
2278.004883	258256.921875
2276.467773	256882.218750
2274.930664	257276.140625
2273.392578	257023.546875
2271.854492	257498.750000
2270.315430	256291.953125
2268.776367	256662.687500
2267.236328	257631.515625
2265.696289	257382.296875
2264.156250	257758.906250
2262.615234	256485.062500
2261.074219	255819.328125
2259.532227	256876.562500
2257.991211	256671.687500
2256.448242	257212.234375
2254.905273	257157.015625
2253.362305	255670.453125
2251.818359	256131.078125
2250.274414	256565.437500
2248.730469	256768.765625
2247.185547	255600.593750
2245.640625	256461.890625
2244.094727	257420.156250
2242.548828	256351.703125
2241.002930	256389.125000
2239.456055	256611.500000
2237.908203	255097.875000
2236.361328	256828.781250
2234.813477	255891.453125
2233.264648	256817.156250
2231.715820	256291.906250
2230.166992	255638.906250
2228.617188	255289.125000
2227.067383	255794.515625
2225.516602	254470.234375
2223.965820	255734.609375
2222.415039	255370.500000
2220.863281	255417.453125
2219.311523	255794.281250
2217.758789	255446.546875
2216.206055	255318.796875
2214.652344	256160.687500
2213.098633	256703.234375
2211.544922	255604.468750
2209.990234	255449.265625
2208.435547	255114.921875
2206.880859	255200.343750
2205.325195	256589.406250
2203.768555	255792.000000
2202.212891	255582.000000
2200.655273	255131.859375
2199.098633	255171.921875
2197.541016	256153.000000
2195.982422	256408.593750
2194.423828	256419.218750
2192.865234	255735.859375
2191.305664	256839.609375
2189.746094	256129.093750
2188.186523	255797.000000
2186.625977	256336.843750
2185.064453	256556.390625
2183.503906	256761.328125
2181.941406	255416.781250
2180.379883	256009.093750
2178.817383	256466.140625
2177.253906	256971.093750
2175.690430	256061.296875
2174.126953	256485.796875
2172.562500	255502.734375
2170.998047	255388.062500
2169.433594	255385.718750
2167.868164	256007.078125
2166.301758	256041.375000
2164.736328	254995.484375
2163.168945	255332.812500
2161.602539	256528.484375
2160.035156	255086.078125
2158.466797	255170.078125
2156.898438	255959.859375
2155.330078	255814.734375
2153.760742	254585.078125
2152.191406	254651.453125
2150.622070	254794.500000
2149.051758	256016.406250
2147.480469	255428.687500
2145.910156	255096.875000
2144.337891	254020.921875
2142.766602	254381.000000
2141.194336	255636.406250
