#Wave		#Intensity
3550.240234	25822.134766
3549.007813	25775.269531
3547.776367	25678.099609
3546.543945	25442.470703
3545.311523	25296.537109
3544.078125	25307.421875
3542.844727	25110.687500
3541.611328	25339.341797
3540.377930	25496.685547
3539.143555	25538.017578
3537.909180	25355.626953
3536.674805	25433.562500
3535.440430	25627.332031
3534.205078	25479.580078
3532.969727	25770.783203
3531.734375	25462.570313
3530.499023	25489.609375
3529.262695	25402.919922
3528.026367	25730.421875
3526.790039	25542.224609
3525.552734	25774.171875
3524.315430	25768.638672
3523.078125	25866.556641
3521.840820	25546.660156
3520.602539	25869.636719
3519.364258	25782.992188
3518.125977	25951.742188
3516.886719	25838.769531
3515.648438	26019.585938
3514.409180	26078.798828
3513.168945	25894.990234
3511.929688	26073.644531
3510.689453	26068.027344
3509.449219	25601.021484
3508.208984	26101.304688
3506.967773	26204.906250
3505.726563	26150.718750
3504.485352	25520.312500
3503.243164	26206.142578
3502.001953	25753.839844
3500.758789	26037.220703
3499.516602	25760.898438
3498.274414	25989.617188
3497.031250	26093.041016
3495.788086	25822.931641
3494.543945	25924.322266
3493.300781	26110.419922
3492.056641	26248.013672
3490.811523	26298.810547
3489.567383	26379.832031
3488.322266	25739.009766
3487.077148	26267.613281
3485.832031	26082.554688
3484.585938	26252.197266
3483.339844	26556.732422
3482.093750	26629.517578
3480.847656	26196.857422
3479.600586	26315.986328
3478.353516	25986.222656
3477.106445	26391.083984
3475.858398	26622.748047
3474.610352	26413.810547
3473.362305	26281.376953
3472.114258	26080.638672
3470.865234	26153.359375
3469.616211	26732.478516
3468.367188	26423.267578
3467.117188	26513.935547
3465.868164	26988.156250
3464.617188	26448.171875
3463.367188	26480.550781
3462.117188	26526.960938
3460.866211	26535.222656
3459.614258	26276.658203
3458.363281	26591.839844
3457.111328	26493.792969
3455.859375	26666.439453
3454.607422	26670.638672
3453.354492	26654.791016
3452.102539	26813.255859
3450.848633	26783.357422
3449.595703	26649.332031
3448.341797	26557.408203
3447.087891	26711.740234
3445.833984	26739.916016
3444.580078	26814.099609
3443.325195	26962.263672
3442.070313	26756.353516
3440.814453	26720.498047
3439.559570	26684.654297
3438.303711	26754.753906
3437.046875	26770.867188
3435.791016	26727.037109
3434.534180	26791.080078
3433.277344	26753.248047
3432.020508	26873.154297
3430.762695	26825.333984
3429.504883	26921.218750
3428.247070	26903.332031
3426.988281	26801.667969
3425.730469	27009.167969
3424.471680	26767.949219
3423.211914	26674.347656
3421.953125	26648.546875
3420.693359	26841.937500
3419.432617	26774.269531
3418.172852	26756.421875
3416.912109	27128.865234
3415.651367	26927.785156
3414.390625	26866.119141
3413.128906	26953.720703
3411.867188	26814.478516
3410.605469	26880.167969
3409.343750	27021.392578
3408.081055	26800.703125
3406.818359	26969.705078
3405.554688	26951.822266
3404.291992	26643.863281
3403.028320	26810.792969
3401.764648	26747.271484
3400.500000	26719.513672
3399.236328	26957.771484
3397.971680	27076.839844
3396.706055	26969.648438
3395.441406	26818.861328
3394.175781	26830.771484
3392.909180	26711.800781
3391.643555	26743.546875
3390.376953	26483.917969
3389.110352	26632.609375
3387.843750	26646.513672
3386.576172	26527.701172
3385.308594	26826.775391
3384.041016	26618.876953
3382.773438	27167.195313
3381.504883	26901.917969
3380.236328	26798.994141
3378.966797	26571.492188
3377.698242	27061.972656
3376.428711	26812.759766
3375.158203	26850.283203
3373.888672	26858.142578
3372.618164	27223.630859
3371.347656	27029.902344
3370.077148	26666.408203
3368.805664	26697.984375
3367.534180	26790.742188
3366.262695	26952.533203
3364.990234	27015.587891
3363.717773	26753.099609
3362.445313	26794.466797
3361.172852	26952.158203
3359.899414	26886.998047
3358.625977	27052.474609
3357.352539	26630.638672
3356.078125	27048.273438
3354.803711	26823.589844
3353.529297	27266.589844
3352.254883	26990.763672
3350.979492	26740.646484
3349.704102	27057.408203
3348.428711	26905.757813
3347.152344	26811.218750
3345.875977	27058.910156
3344.599609	26836.570313
3343.322266	27131.318359
3342.044922	26832.408203
3340.767578	27068.072266
3339.490234	26957.888672
3338.211914	27252.333984
3336.933594	27004.705078
3335.655273	27041.833984
3334.375977	26855.199219
3333.097656	26970.828125
3331.817383	27029.509766
3330.538086	27109.738281
3329.257813	26982.070313
3327.977539	26777.998047
3326.697266	27044.421875
3325.416016	27055.976563
3324.134766	27190.949219
3322.853516	26883.191406
3321.572266	27321.666016
3320.290039	27180.425781
3319.007813	27099.925781
3317.724609	27215.152344
3316.442383	27134.671875
3315.159180	27093.347656
3313.875000	27362.982422
3312.591797	27086.998047
3311.307617	27424.921875
3310.023438	27207.671875
3308.738281	27561.041016
3307.454102	27296.968750
3306.167969	27378.689453
3304.882813	27282.689453
3303.596680	27381.937500
3302.310547	27323.056641
3301.024414	27227.125000
3299.738281	27468.716797
3298.451172	27341.583984
3297.164063	27454.341797
3295.875977	27531.955078
3294.587891	27677.746094
3293.299805	27609.125000
3292.011719	27577.546875
3290.722656	27555.718750
3289.433594	27518.320313
3288.144531	27759.326172
3286.855469	27533.095703
3285.565430	27639.714844
3284.275391	27668.464844
3282.984375	27479.353516
3281.694336	27469.228516
3280.402344	27900.425781
3279.111328	27888.259766
3277.819336	27965.486328
3276.528320	27963.017578
3275.235352	27845.949219
3273.943359	28026.044922
3272.650391	28097.332031
3271.357422	27986.125000
3270.063477	28100.078125
3268.770508	27889.966797
3267.476563	28013.580078
3266.181641	28245.734375
3264.887695	27857.349609
3263.592773	27947.925781
3262.296875	28106.285156
3261.001953	27886.751953
3259.706055	28136.089844
3258.410156	27895.339844
3257.113281	27947.064453
3255.816406	28016.183594
3254.519531	27996.242188
3253.222656	28162.056641
3251.924805	28107.265625
3250.626953	28474.107422
3249.329102	28123.431641
3248.030273	28037.748047
3246.732422	27975.292969
3245.432617	28222.017578
3244.133789	28437.718750
3242.833984	27902.029297
3241.534180	28140.869141
3240.234375	28229.021484
3238.933594	28073.949219
3237.632813	27963.324219
3236.331055	28091.958984
3235.030273	28010.304688
3233.728516	28215.994141
3232.426758	28263.505859
3231.124023	28731.156250
3229.821289	28292.939453
3228.518555	28267.185547
3227.215820	28166.324219
3225.912109	28365.898438
3224.608398	27982.058594
3223.303711	28277.812500
3222.000000	28259.771484
3220.695313	28241.738281
3219.389648	28264.099609
3218.084961	28440.283203
3216.779297	28454.892578
3215.473633	28127.365234
3214.166992	28240.035156
3212.860352	28479.449219
3211.553711	28390.302734
3210.246094	28324.240234
3208.939453	28419.470703
3207.631836	28447.474609
3206.323242	28371.839844
3205.015625	28275.130859
3203.707031	28195.728516
3202.397461	28371.404297
3201.088867	28489.478516
3199.779297	28571.078125
3198.468750	28583.650391
3197.159180	28280.095703
3195.848633	28537.896484
3194.538086	28358.958984
3193.226563	28490.257813
3191.916016	28525.787109
3190.603516	28324.003906
3189.291992	28250.496094
3187.979492	28404.638672
3186.666992	28333.050781
3185.354492	28129.574219
3184.041016	28367.732422
3182.727539	28454.806641
3181.414063	28287.734375
3180.099609	28489.388672
3178.785156	28746.326172
3177.470703	28432.283203
3176.156250	28517.318359
3174.840820	28384.759766
3173.525391	28483.115234
3172.208984	28198.021484
3170.893555	28189.576172
3169.576172	28293.619141
3168.259766	28353.769531
3166.942383	28095.636719
3165.625000	28285.357422
3164.307617	28265.457031
3162.989258	28295.074219
3161.670898	28301.830078
3160.352539	28181.044922
3159.033203	28324.835938
3157.714844	28280.199219
3156.394531	28296.449219
3155.075195	28365.937500
3153.754883	28496.230469
3152.434570	28567.533203
3151.113281	28159.904297
3149.791992	28223.646484
3148.470703	28274.060547
3147.149414	28381.417969
3145.827148	28145.074219
3144.504883	28371.990234
3143.182617	28092.105469
3141.859375	28381.533203
3140.536133	28632.886719
3139.212891	28078.146484
3137.888672	27974.902344
3136.564453	28157.927734
3135.240234	28365.498047
3133.915039	28478.238281
3132.589844	28573.875000
3131.264648	28347.525391
3129.939453	28363.623047
3128.613281	28233.958984
3127.287109	28102.458984
3125.959961	28046.697266
3124.632813	28528.156250
3123.305664	28453.404297
3121.978516	28321.964844
3120.650391	28313.447266
3119.322266	28858.630859
3117.993164	28375.765625
3116.665039	28692.119141
3115.335938	28373.806641
3114.005859	28531.414063
3112.676758	28386.937500
3111.346680	28263.283203
3110.015625	28677.382813
3108.685547	28772.515625
3107.354492	28639.417969
3106.022461	28638.355469
3104.691406	28303.662109
3103.359375	28611.724609
3102.027344	28640.802734
3100.694336	28287.500000
3099.361328	28536.960938
3098.028320	28663.927734
3096.695313	28764.480469
3095.361328	28868.746094
3094.027344	28583.517578
3092.692383	28719.746094
3091.357422	28861.548828
3090.022461	28687.435547
3088.687500	28932.550781
3087.351563	28799.837891
3086.015625	28761.119141
3084.678711	28609.720703
3083.342773	28777.621094
3082.005859	28836.548828
3080.667969	28632.675781
3079.331055	28913.031250
3077.993164	28801.156250
3076.654297	28968.796875
3075.315430	29027.595703
3073.976563	29281.333984
3072.637695	28734.632813
3071.298828	29181.320313
3069.958984	29026.433594
3068.618164	28800.443359
3067.278320	29070.773438
3065.937500	29077.011719
3064.595703	29371.474609
3063.254883	29154.958984
3061.913086	29020.857422
3060.571289	29292.671875
3059.228516	29229.648438
3057.885742	29101.222656
3056.542969	28864.453125
3055.200195	29108.005859
3053.856445	29110.457031
3052.511719	29064.343750
3051.167969	29070.533203
3049.823242	28839.634766
3048.478516	29075.425781
3047.132813	29081.595703
3045.788086	29078.435547
3044.441406	29256.175781
3043.095703	29344.330078
3041.749023	29242.302734
3040.402344	29397.503906
3039.055664	29407.298828
3037.708008	29201.001953
3036.360352	29050.669922
3035.011719	29252.304688
3033.663086	29025.705078
3032.314453	29245.855469
3030.965820	29039.826172
3029.616211	28884.113281
3028.266602	29278.941406
3026.916992	29361.224609
3025.566406	29328.220703
3024.215820	29332.394531
3022.865234	29122.902344
3021.513672	29123.404297
3020.162109	29123.900391
3018.809570	29300.769531
3017.458008	29041.357422
3016.105469	29220.011719
3014.751953	29270.564453
3013.399414	28961.253906
3012.045898	29052.634766
3010.691406	29275.599609
3009.336914	29403.925781
3007.982422	29148.603516
3006.627930	29473.269531
3005.272461	29136.550781
3003.916992	29162.929688
3002.561523	29057.851563
3001.205078	29528.433594
2999.848633	29166.105469
2998.492188	29018.542969
2997.134766	29020.859375
2995.777344	29098.984375
2994.419922	29328.656250
2993.061523	29061.050781
2991.703125	29257.355469
2990.344727	29187.550781
2988.985352	29317.238281
2987.625977	29256.677734
2986.266602	29293.982422
2984.906250	29167.011719
2983.545898	29064.083984
2982.185547	28837.611328
2980.824219	29015.126953
2979.462891	29234.960938
2978.101563	29227.957031
2976.739258	29272.554688
2975.376953	28991.013672
2974.014648	28960.117188
2972.651367	29153.904297
2971.288086	29277.632813
2969.924805	29226.433594
2968.560547	29276.468750
2967.196289	29089.142578
2965.832031	29249.542969
2964.466797	29259.072266
2963.101563	29257.560547
2961.736328	29270.753906
2960.370117	29173.679688
2959.003906	29423.871094
2957.637695	29091.701172
2956.270508	29053.492188
2954.903320	29165.835938
2953.535156	29305.654297
2952.167969	29337.140625
2950.799805	29357.599609
2949.430664	29365.208984
2948.062500	29310.466797
2946.692383	29519.726563
2945.323242	29448.474609
2943.953125	29208.679688
2942.583008	29577.175781
2941.212891	29291.675781
2939.841797	29551.939453
2938.470703	29603.394531
2937.099609	29857.960938
2935.727539	29662.308594
2934.355469	29847.222656
2932.982422	29871.111328
2931.609375	29564.060547
2930.236328	29566.066406
2928.863281	29984.724609
2927.489258	29729.013672
2926.115234	29983.035156
2924.740234	29868.052734
2923.366211	29848.058594
2921.990234	30131.060547
2920.615234	29901.154297
2919.239258	29828.250000
2917.863281	29859.341797
2916.486328	29585.894531
2915.109375	29879.541016
2913.732422	30100.138672
2912.355469	29996.281250
2910.977539	29837.822266
2909.599609	29888.880859
2908.220703	30083.757813
2906.841797	29863.488281
2905.462891	29870.816406
2904.083008	29899.970703
2902.703125	29941.841797
2901.323242	29739.994141
2899.942383	30247.332031
2898.561523	29732.849609
2897.180664	29996.417969
2895.798828	30341.615234
2894.416992	30127.185547
2893.035156	30174.355469
2891.652344	30090.781250
2890.269531	30174.232422
2888.886719	30335.671875
2887.502930	30264.808594
2886.119141	30302.804688
2884.735352	30235.605469
2883.350586	29969.015625
2881.965820	30436.597656
2880.581055	30380.275391
2879.195313	30169.996094
2877.809570	30173.527344
2876.422852	30358.123047
2875.036133	30508.232422
2873.649414	30198.572266
2872.262695	30279.884766
2870.875000	30239.955078
2869.487305	30026.425781
2868.098633	30037.197266
2866.709961	30098.572266
2865.321289	30273.767578
2863.931641	30049.585938
2862.541992	30007.945313
2861.152344	30356.384766
2859.761719	30087.203125
2858.371094	29886.736328
2856.980469	30050.880859
2855.588867	30323.185547
2854.197266	30151.658203
2852.805664	29951.359375
2851.413086	29917.009766
2850.020508	30196.279297
2848.627930	29925.832031
2847.234375	29911.320313
2845.840820	29831.976563
2844.447266	29983.140625
2843.052734	29790.402344
2841.658203	29869.509766
2840.262695	30115.906250
2838.867188	29840.521484
2837.471680	29653.388672
2836.075195	29480.728516
2834.679688	29588.558594
2833.282227	29708.914063
2831.885742	29822.017578
2830.488281	29845.255859
2829.089844	29764.328125
2827.692383	29342.328125
2826.293945	29467.964844
2824.894531	29668.900391
2823.496094	29744.158203
2822.096680	29448.111328
2820.696289	29679.378906
2819.296875	29575.302734
2817.895508	29672.003906
2816.495117	29395.962891
2815.093750	29300.980469
2813.692383	29539.148438
2812.290039	29377.923828
2810.888672	29281.214844
2809.485352	29719.636719
2808.083008	29367.039063
2806.679688	29506.505859
2805.276367	29663.781250
2803.872070	29681.527344
2802.467773	29844.041016
2801.063477	29579.390625
2799.658203	29407.763672
2798.252930	29471.980469
2796.847656	29427.240234
2795.441406	29405.724609
2794.035156	29534.136719
2792.627930	29542.933594
2791.220703	29282.357422
2789.813477	29380.376953
2788.406250	29519.355469
2786.998047	29793.736328
2785.589844	29481.660156
2784.180664	29549.234375
2782.771484	29397.677734
2781.362305	29824.957031
2779.952148	29513.167969
2778.541992	29441.820313
2777.131836	29662.341797
2775.720703	29733.310547
2774.309570	29715.310547
2772.897461	29599.517578
2771.486328	29723.771484
2770.074219	29611.582031
2768.661133	29686.013672
2767.248047	29804.818359
2765.834961	29792.136719
2764.420898	29846.927734
2763.006836	29993.996094
2761.592773	29658.279297
2760.177734	29564.019531
2758.762695	29560.265625
2757.347656	29982.117188
2755.931641	30036.763672
2754.515625	29651.804688
2753.099609	29807.503906
2751.682617	29890.490234
2750.265625	29716.611328
2748.847656	30066.951172
2747.430664	30094.921875
2746.011719	30059.160156
2744.593750	30011.029297
2743.174805	30019.525391
2741.754883	29766.269531
2740.335938	29847.308594
2738.916016	29633.103516
2737.495117	29753.005859
2736.075195	29860.480469
2734.653320	29980.261719
2733.232422	29888.072266
2731.810547	30088.994141
2730.388672	30166.259766
2728.965820	30026.439453
2727.542969	30105.439453
2726.120117	29863.400391
2724.697266	29965.320313
2723.273438	30150.039063
2721.848633	30109.074219
2720.423828	30022.316406
2718.999023	29942.644531
2717.574219	29998.613281
2716.148438	29764.041016
2714.722656	30138.623047
2713.295898	30018.511719
2711.870117	29719.005859
2710.442383	29783.738281
2709.015625	30330.261719
2707.587891	30027.375000
2706.159180	30178.097656
2704.731445	29899.992188
2703.301758	29952.289063
2701.873047	30122.228516
2700.443359	30035.724609
2699.013672	29952.771484
2697.583984	29983.929688
2696.153320	30002.789063
2694.721680	30088.291016
2693.291016	30135.167969
2691.859375	30076.822266
2690.426758	29948.390625
2688.995117	29653.546875
2687.562500	30099.912109
2686.128906	30062.638672
2684.695313	30014.875000
2683.261719	29937.373047
2681.828125	30171.437500
2680.393555	30380.886719
2678.958008	30341.826172
2677.523438	29980.988281
2676.087891	30188.570313
2674.651367	30317.386719
2673.215820	29958.562500
2671.778320	30085.617188
2670.341797	29885.974609
2668.904297	29820.888672
2667.466797	29905.974609
2666.028320	29994.505859
2664.589844	30206.880859
2663.151367	29880.089844
2661.711914	29876.115234
2660.272461	29966.296875
2658.833008	29725.220703
2657.392578	29939.125000
2655.952148	29729.531250
2654.510742	29689.003906
2653.069336	29686.806641
2651.627930	29883.083984
2650.185547	29717.216797
2648.743164	30082.179688
2647.300781	29885.023438
2645.857422	29947.117188
2644.414063	29991.789063
2642.970703	30057.296875
2641.526367	29922.900391
2640.082031	29977.960938
2638.636719	29970.455078
2637.191406	30072.359375
2635.746094	29825.226563
2634.299805	30119.785156
2632.853516	30277.099609
2631.406250	30205.320313
2629.959961	30296.617188
2628.511719	29995.964844
2627.064453	30083.794922
2625.616211	30074.517578
2624.167969	30084.302734
2622.718750	30258.652344
2621.269531	30323.800781
2619.819336	30144.779297
2618.370117	30329.357422
2616.918945	30152.148438
2615.468750	30359.119141
2614.017578	30036.687500
2612.566406	30193.427734
2611.114258	30111.503906
2609.662109	30154.066406
2608.209961	30455.800781
2606.756836	30382.501953
2605.303711	30155.523438
2603.849609	30303.345703
2602.395508	30300.908203
2600.941406	30191.466797
2599.486328	29888.835938
2598.031250	29967.566406
2596.576172	30279.064453
2595.120117	30414.546875
2593.664063	30344.843750
2592.207031	30357.886719
2590.750000	30219.316406
2589.292969	30383.945313
2587.834961	30031.912109
2586.376953	30168.957031
2584.918945	30116.611328
2583.459961	29756.300781
2582.000977	30029.195313
2580.541016	29890.929688
2579.081055	30020.943359
2577.621094	30197.298828
2576.161133	30177.658203
2574.699219	30171.769531
2573.238281	30220.843750
2571.776367	30081.001953
2570.314453	30138.652344
2568.851563	30203.132813
2567.389648	30106.291016
2565.925781	29923.722656
2564.462891	30284.892578
2562.998047	30201.810547
2561.534180	30045.058594
2560.069336	30503.595703
2558.604492	30276.597656
2557.138672	30034.296875
2555.672852	29756.154297
2554.207031	30022.550781
2552.740234	30025.234375
2551.273438	30132.291016
2549.806641	29936.505859
2548.338867	30103.382813
2546.871094	30155.615234
2545.402344	30069.361328
2543.933594	29926.753906
2542.464844	29840.593750
2540.995117	30003.853516
2539.525391	29905.759766
2538.054688	29870.878906
2536.583984	29871.853516
2535.113281	29990.562500
2533.641602	29866.970703
2532.169922	29903.753906
2530.698242	30053.046875
2529.225586	29753.949219
2527.752930	30138.375000
2526.279297	29810.437500
2524.805664	29847.171875
2523.332031	29843.015625
2521.857422	29811.619141
2520.382813	29836.402344
2518.908203	30055.152344
2517.432617	30098.568359
2515.956055	29932.769531
2514.480469	30052.701172
2513.003906	29776.501953
2511.526367	29801.240234
2510.049805	30007.753906
2508.571289	29971.265625
2507.093750	29989.132813
2505.615234	29618.212891
2504.135742	29916.205078
2502.657227	29849.220703
2501.177734	29814.500000
2499.697266	29881.552734
2498.216797	29911.267578
2496.736328	30154.548828
2495.254883	29962.167969
2493.773438	29902.033203
2492.291992	29813.130859
2490.809570	30181.490234
2489.327148	29809.830078
2487.843750	29876.724609
2486.360352	30134.791016
2484.876953	30194.796875
2483.392578	30078.876953
2481.908203	29907.218750
2480.423828	30011.177734
2478.938477	29873.416016
2477.453125	29678.277344
2475.966797	29898.753906
2474.480469	29767.871094
2472.993164	30243.130859
2471.506836	29940.064453
2470.018555	30013.435547
2468.531250	29901.203125
2467.042969	29979.599609
2465.553711	30132.142578
2464.065430	30218.865234
2462.576172	29786.486328
2461.085938	29883.355469
2459.595703	30008.804688
2458.105469	29937.166016
2456.614258	29995.193359
2455.123047	30155.853516
2453.630859	30334.939453
2452.139648	30241.410156
2450.646484	29981.427734
2449.154297	30025.902344
2447.661133	29924.111328
2446.166992	29839.171875
2444.672852	30053.330078
2443.178711	29896.169922
2441.683594	29942.275391
2440.188477	29921.201172
2438.693359	29947.128906
2437.197266	30160.970703
2435.701172	29836.218750
2434.205078	29959.410156
2432.708008	30010.441406
2431.209961	29999.421875
2429.712891	29857.693359
2428.213867	29778.021484
2426.715820	30013.277344
2425.216797	29993.884766
2423.717773	29939.343750
2422.217773	30125.832031
2420.717773	29810.255859
2419.216797	29755.792969
2417.715820	30042.521484
2416.214844	29977.990234
2414.713867	30222.720703
2413.210938	30051.220703
2411.708984	29973.363281
2410.206055	29796.998047
2408.703125	29682.503906
2407.199219	29758.373047
2405.695313	29825.857422
2404.191406	29300.978516
2402.686523	29870.636719
2401.181641	29926.357422
2399.675781	29893.683594
2398.169922	29742.677734
2396.664063	29730.058594
2395.157227	29674.126953
2393.650391	29759.792969
2392.142578	29717.197266
2390.634766	30080.804688
2389.126953	29761.876953
2387.618164	29755.910156
2386.109375	29824.794922
2384.599609	29497.855469
2383.089844	29797.861328
2381.580078	29760.298828
2380.069336	29721.089844
2378.558594	29650.335938
2377.047852	29822.097656
2375.536133	29723.121094
2374.023438	29678.972656
2372.511719	29463.908203
2370.998047	29620.597656
2369.485352	29739.052734
2367.971680	29645.185547
2366.458008	29499.968750
2364.943359	29368.083984
2363.428711	29489.785156
2361.913086	29460.673828
2360.397461	29391.824219
2358.881836	29669.056641
2357.365234	29533.972656
2355.848633	29370.822266
2354.332031	29588.277344
2352.814453	29691.490234
2351.295898	29561.488281
2349.778320	29411.710938
2348.258789	29691.726563
2346.740234	29662.607422
2345.220703	29246.957031
2343.701172	29407.882813
2342.180664	29410.220703
2340.660156	29615.582031
2339.138672	29530.400391
2337.617188	29618.486328
2336.095703	29277.691406
2334.573242	29603.236328
2333.050781	29755.517578
2331.528320	29592.935547
2330.004883	29479.863281
2328.480469	29459.091797
2326.957031	29514.080078
2325.431641	29394.521484
2323.907227	29321.109375
2322.381836	29395.830078
2320.856445	29475.443359
2319.330078	29339.560547
2317.803711	29241.562500
2316.276367	29140.324219
2314.749023	29137.738281
2313.221680	29547.544922
2311.693359	29291.896484
2310.165039	29161.179688
2308.635742	29477.074219
2307.106445	29382.480469
2305.577148	29228.861328
2304.046875	29142.576172
2302.516602	29405.658203
2300.985352	29142.291016
2299.454102	29188.861328
2297.922852	29251.791016
2296.390625	29018.148438
2294.858398	29352.976563
2293.325195	29189.833984
2291.791992	29216.673828
2290.258789	29110.927734
2288.724609	29033.048828
2287.190430	29120.423828
2285.655273	29269.894531
2284.120117	29187.121094
2282.583984	29295.628906
2281.048828	29464.539063
2279.511719	29073.007813
2277.975586	29023.025391
2276.438477	29180.437500
2274.900391	28825.185547
2273.362305	28806.306641
2271.824219	28875.539063
2270.285156	28819.134766
2268.746094	28880.167969
2267.206055	29094.417969
2265.666016	29139.044922
2264.125977	29227.640625
2262.584961	29097.898438
2261.043945	28863.988281
2259.502930	28872.796875
2257.960938	28836.021484
2256.417969	28978.271484
2254.875000	29083.025391
2253.332031	29103.142578
2251.789063	28980.152344
2250.245117	28719.041016
2248.700195	28955.386719
2247.155273	29146.113281
2245.610352	29042.718750
2244.064453	28952.369141
2242.518555	28949.736328
2240.972656	28934.115234
2239.425781	29267.386719
2237.877930	28972.650391
2236.331055	29039.744141
2234.783203	28999.785156
2233.234375	29026.304688
2231.685547	29253.765625
2230.136719	28985.324219
2228.586914	29074.992188
2227.037109	29218.046875
2225.486328	28723.166016
2223.935547	28927.738281
2222.384766	28950.972656
2220.833008	28898.164063
2219.281250	28974.759766
2217.728516	29049.695313
2216.175781	29004.974609
2214.622070	28879.474609
2213.068359	28917.210938
2211.514648	28638.353516
2209.959961	28721.339844
2208.405273	28851.095703
2206.850586	29006.603516
2205.294922	28939.369141
2203.738281	28802.802734
2202.181641	28934.003906
2200.625000	28791.058594
2199.068359	29076.921875
2197.510742	29000.074219
2195.952148	28986.089844
2194.393555	28949.562500
2192.834961	28761.701172
2191.275391	28960.263672
2189.715820	29186.078125
2188.155273	28885.671875
2186.595703	29030.958984
2185.034180	28885.115234
2183.472656	28951.550781
2181.911133	28722.222656
2180.349609	29161.433594
2178.787109	28999.632813
2177.223633	28990.478516
2175.660156	28832.011719
2174.096680	29209.730469
2172.532227	29044.865234
2170.967773	28945.859375
2169.403320	28992.851563
2167.837891	29091.126953
2166.271484	28753.328125
2164.705078	29021.484375
2163.138672	28884.148438
2161.572266	29052.816406
2160.003906	28809.847656
2158.436523	29151.341797
2156.868164	29001.298828
2155.299805	28878.533203
2153.730469	28827.814453
2152.161133	28780.316406
2150.590820	28758.423828
2149.020508	29029.050781
2147.450195	29234.017578
2145.878906	28927.642578
2144.307617	28784.337891
2142.735352	28658.667969
2141.163086	28684.714844
