#Wave		#Intensity
3550.240234	30581.900391
3549.007813	30726.566406
3547.776367	30817.792969
3546.543945	30566.812500
3545.311523	30745.585938
3544.078125	30555.794922
3542.844727	30840.328125
3541.611328	30605.822266
3540.377930	30601.312500
3539.143555	30808.349609
3537.909180	30626.863281
3536.674805	30941.558594
3535.440430	30821.099609
3534.205078	30922.214844
3532.969727	30511.240234
3531.734375	30748.480469
3530.499023	30823.132813
3529.262695	30978.972656
3528.026367	30960.148438
3526.790039	30988.011719
3525.552734	30908.308594
3524.315430	31100.501953
3523.078125	30763.189453
3521.840820	30979.662109
3520.602539	31027.748047
3519.364258	31031.214844
3518.125977	31198.839844
3516.886719	31380.570313
3515.648438	31015.250000
3514.409180	31265.798828
3513.168945	31202.369141
3511.929688	31055.958984
3510.689453	31186.906250
3509.449219	31305.652344
3508.208984	31460.761719
3506.967773	31197.085938
3505.726563	31196.425781
3504.485352	30995.593750
3503.243164	31261.800781
3502.001953	31194.421875
3500.758789	31430.156250
3499.516602	31372.863281
3498.274414	31210.566406
3497.031250	31250.263672
3495.788086	31366.656250
3494.543945	31539.509766
3493.300781	31451.966797
3492.056641	31437.091797
3490.811523	31531.140625
3489.567383	31917.558594
3488.322266	31545.710938
3487.077148	31724.326172
3485.832031	31858.525391
3484.585938	31740.798828
3483.339844	31683.552734
3482.093750	31978.783203
3480.847656	31772.498047
3479.600586	31622.667969
3478.353516	31744.615234
3477.106445	31896.689453
3475.858398	32032.599609
3474.610352	31740.017578
3473.362305	31962.369141
3472.114258	32059.964844
3470.865234	32316.314453
3469.616211	32096.257813
3468.367188	31934.560547
3467.117188	32291.197266
3465.868164	32197.806641
3464.617188	32060.277344
3463.367188	32191.804688
3462.117188	31847.605469
3460.866211	32721.556641
3459.614258	32068.435547
3458.363281	32223.902344
3457.111328	32134.652344
3455.859375	32103.578125
3454.607422	32146.677734
3453.354492	32522.412109
3452.102539	32178.712891
3450.848633	32225.761719
3449.595703	32200.691406
3448.341797	32377.853516
3447.087891	32442.833984
3445.833984	32383.697266
3444.580078	32656.734375
3443.325195	32695.593750
3442.070313	32596.431641
3440.814453	32331.341797
3439.559570	32472.193359
3438.303711	32588.994141
3437.046875	32467.945313
3435.791016	32534.742188
3434.534180	32777.277344
3433.277344	32246.880859
3432.020508	32619.138672
3430.762695	32637.923828
3429.504883	32548.931641
3428.247070	32835.074219
3426.988281	32518.666016
3425.730469	32264.218750
3424.471680	32586.115234
3423.211914	32588.912109
3421.953125	32627.578125
3420.693359	32373.316406
3419.432617	32567.394531
3418.172852	32886.859375
3416.912109	32724.292969
3415.651367	32858.429688
3414.390625	32672.050781
3413.128906	32358.394531
3411.867188	32864.546875
3410.605469	32988.574219
3409.343750	32917.656250
3408.081055	32755.308594
3406.818359	33046.238281
3405.554688	32736.865234
3404.291992	32503.128906
3403.028320	32515.808594
3401.764648	32788.644531
3400.500000	32594.750000
3399.236328	32537.910156
3397.971680	32822.457031
3396.706055	32775.503906
3395.441406	32790.070313
3394.175781	32931.558594
3392.909180	32955.988281
3391.643555	32530.382813
3390.376953	32802.636719
3389.110352	32898.406250
3387.843750	32377.990234
3386.576172	32735.257813
3385.308594	32868.593750
3384.041016	32661.332031
3382.773438	32713.460938
3381.504883	32787.332031
3380.236328	32728.605469
3378.966797	32944.851563
3377.698242	33077.941406
3376.428711	32772.027344
3375.158203	32709.388672
3373.888672	32897.765625
3372.618164	32641.484375
3371.347656	32808.054688
3370.077148	32893.574219
3368.805664	33097.523438
3367.534180	32908.531250
3366.262695	32772.906250
3364.990234	32913.593750
3363.717773	33109.449219
3362.445313	32946.250000
3361.172852	32901.429688
3359.899414	32860.570313
3358.625977	32648.248047
3357.352539	33107.988281
3356.078125	32921.308594
3354.803711	32817.433594
3353.529297	32768.746094
3352.254883	33052.808594
3350.979492	33086.750000
3349.704102	33049.832031
3348.428711	33087.687500
3347.152344	33481.566406
3345.875977	33214.472656
3344.599609	32984.855469
3343.322266	33352.925781
3342.044922	33298.285156
3340.767578	33178.824219
3339.490234	33299.074219
3338.211914	33311.246094
3336.933594	33519.765625
3335.655273	33292.375000
3334.375977	33198.542969
3333.097656	33208.750000
3331.817383	33534.796875
3330.538086	33466.464844
3329.257813	33486.394531
3327.977539	33657.273438
3326.697266	33328.261719
3325.416016	33101.292969
3324.134766	33413.187500
3322.853516	33875.757813
3321.572266	33695.808594
3320.290039	33639.277344
3319.007813	33619.957031
3317.724609	33512.582031
3316.442383	33712.417969
3315.159180	33759.589844
3313.875000	33624.867188
3312.591797	33771.742188
3311.307617	33445.503906
3310.023438	33774.097656
3308.738281	33899.335938
3307.454102	33667.042969
3306.167969	33610.617188
3304.882813	34026.726563
3303.596680	34071.742188
3302.310547	34267.015625
3301.024414	33906.101563
3299.738281	34109.117188
3298.451172	33968.781250
3297.164063	33924.050781
3295.875977	34119.117188
3294.587891	34267.312500
3293.299805	34152.386719
3292.011719	34220.628906
3290.722656	34294.679688
3289.433594	34236.281250
3288.144531	34193.476563
3286.855469	34115.656250
3285.565430	33989.222656
3284.275391	34277.222656
3282.984375	34162.468750
3281.694336	34178.050781
3280.402344	34483.300781
3279.111328	34422.992188
3277.819336	34599.781250
3276.528320	34724.035156
3275.235352	34955.054688
3273.943359	34362.585938
3272.650391	34554.750000
3271.357422	34694.410156
3270.063477	34496.339844
3268.770508	34610.718750
3267.476563	35047.039063
3266.181641	35011.910156
3264.887695	34775.156250
3263.592773	34680.007813
3262.296875	34710.863281
3261.001953	35071.082031
3259.706055	35055.339844
3258.410156	34816.886719
3257.113281	35186.503906
3255.816406	35004.257813
3254.519531	34909.183594
3253.222656	34655.484375
3251.924805	34891.312500
3250.626953	34715.085938
3249.329102	34761.296875
3248.030273	34821.011719
3246.732422	35054.636719
3245.432617	35322.929688
3244.133789	35100.425781
3242.833984	35337.675781
3241.534180	34895.140625
3240.234375	35277.105469
3238.933594	35122.351563
3237.632813	35409.535156
3236.331055	35339.691406
3235.030273	35493.605469
3233.728516	35294.578125
3232.426758	35483.125000
3231.124023	35305.382813
3229.821289	35200.941406
3228.518555	34857.660156
3227.215820	35015.300781
3225.912109	35132.429688
3224.608398	34945.324219
3223.303711	35368.437500
3222.000000	35506.558594
3220.695313	35184.820313
3219.389648	35409.464844
3218.084961	35337.867188
3216.779297	35275.914063
3215.473633	35632.992188
3214.166992	35715.113281
3212.860352	35288.082031
3211.553711	35256.910156
3210.246094	35600.207031
3208.939453	35357.792969
3207.631836	35547.347656
3206.323242	35552.589844
3205.015625	35799.562500
3203.707031	35355.910156
3202.397461	35710.191406
3201.088867	35886.007813
3199.779297	35624.718750
3198.468750	35624.167969
3197.159180	35638.937500
3195.848633	35768.621094
3194.538086	35643.550781
3193.226563	35585.539063
3191.916016	35598.375000
3190.603516	35691.574219
3189.291992	35757.941406
3187.979492	35640.648438
3186.666992	35395.277344
3185.354492	35624.167969
3184.041016	35740.167969
3182.727539	35961.218750
3181.414063	35675.867188
3180.099609	35587.382813
3178.785156	35850.316406
3177.470703	35471.621094
3176.156250	35799.351563
3174.840820	35689.914063
3173.525391	35506.113281
3172.208984	35879.375000
3170.893555	35937.800781
3169.576172	35717.832031
3168.259766	35623.769531
3166.942383	35800.355469
3165.625000	35912.078125
3164.307617	35753.257813
3162.989258	35703.058594
3161.670898	35772.828125
3160.352539	35591.300781
3159.033203	35417.464844
3157.714844	35504.359375
3156.394531	35499.910156
3155.075195	35970.882813
3153.754883	35920.687500
3152.434570	35556.875000
3151.113281	35845.062500
3149.791992	35956.414063
3148.470703	35708.703125
3147.149414	35964.355469
3145.827148	36022.429688
3144.504883	36055.796875
3143.182617	35770.324219
3141.859375	36095.906250
3140.536133	35945.226563
3139.212891	35889.433594
3137.888672	36080.136719
3136.564453	35696.402344
3135.240234	35932.539063
3133.915039	36104.140625
3132.589844	35868.406250
3131.264648	36102.425781
3129.939453	35685.039063
3128.613281	36096.914063
3127.287109	36101.726563
3125.959961	35856.789063
3124.632813	36181.312500
3123.305664	35959.156250
3121.978516	35824.070313
3120.650391	35896.964844
3119.322266	36228.722656
3117.993164	36241.023438
3116.665039	36387.425781
3115.335938	36161.730469
3114.005859	36402.476563
3112.676758	36518.523438
3111.346680	36400.511719
3110.015625	36101.429688
3108.685547	36421.167969
3107.354492	36420.167969
3106.022461	36490.808594
3104.691406	36244.746094
3103.359375	36518.910156
3102.027344	36723.230469
3100.694336	36396.281250
3099.361328	36606.175781
3098.028320	36288.816406
3096.695313	36752.730469
3095.361328	36582.257813
3094.027344	36598.117188
3092.692383	36544.367188
3091.357422	36616.632813
3090.022461	36673.820313
3088.687500	36663.308594
3087.351563	36846.355469
3086.015625	36944.765625
3084.678711	36690.015625
3083.342773	36775.265625
3082.005859	36867.980469
3080.667969	36975.660156
3079.331055	36972.578125
3077.993164	36931.968750
3076.654297	36915.757813
3075.315430	37178.949219
3073.976563	37252.667969
3072.637695	37371.328125
3071.298828	37064.566406
3069.958984	37083.917969
3068.618164	37517.179688
3067.278320	37379.117188
3065.937500	37360.925781
3064.595703	37325.898438
3063.254883	37440.574219
3061.913086	37166.078125
3060.571289	37514.519531
3059.228516	37853.441406
3057.885742	37608.941406
3056.542969	37530.890625
3055.200195	37460.347656
3053.856445	37617.742188
3052.511719	37459.425781
3051.167969	37641.007813
3049.823242	37368.878906
3048.478516	37664.238281
3047.132813	37621.726563
3045.788086	37198.683594
3044.441406	37797.851563
3043.095703	37768.378906
3041.749023	37876.863281
3040.402344	37998.332031
3039.055664	37832.808594
3037.708008	37831.277344
3036.360352	37833.472656
3035.011719	37604.785156
3033.663086	37865.765625
3032.314453	37968.433594
3030.965820	37631.953125
3029.616211	38102.921875
3028.266602	37972.988281
3026.916992	38222.394531
3025.566406	37811.804688
3024.215820	38211.652344
3022.865234	38191.414063
3021.513672	37688.234375
3020.162109	37993.105469
3018.809570	38063.894531
3017.458008	38008.429688
3016.105469	37980.820313
3014.751953	38055.257813
3013.399414	38203.851563
3012.045898	38140.972656
3010.691406	37920.531250
3009.336914	38145.031250
3007.982422	38198.937500
3006.627930	37973.074219
3005.272461	37967.718750
3003.916992	38032.726563
3002.561523	37794.089844
3001.205078	37892.417969
2999.848633	37898.175781
2998.492188	38083.371094
2997.134766	38028.035156
2995.777344	38054.082031
2994.419922	38331.527344
2993.061523	37989.691406
2991.703125	38337.222656
2990.344727	38078.667969
2988.985352	37986.453125
2987.625977	38222.941406
2986.266602	37842.753906
2984.906250	37968.421875
2983.545898	38193.660156
2982.185547	38249.078125
2980.824219	38450.160156
2979.462891	38735.957031
2978.101563	38245.562500
2976.739258	38579.179688
2975.376953	38376.472656
2974.014648	38485.164063
2972.651367	38706.132813
2971.288086	38717.101563
2969.924805	38442.757813
2968.560547	38477.699219
2967.196289	39007.527344
2965.832031	38611.898438
2964.466797	39097.300781
2963.101563	38891.195313
2961.736328	38710.914063
2960.370117	38918.453125
2959.003906	38820.917969
2957.637695	39166.074219
2956.270508	39107.082031
2954.903320	38976.515625
2953.535156	39161.691406
2952.167969	39240.351563
2950.799805	39073.144531
2949.430664	39645.140625
2948.062500	39041.503906
2946.692383	39688.386719
2945.323242	39248.136719
2943.953125	39377.941406
2942.583008	39580.953125
2941.212891	39609.875000
2939.841797	39625.964844
2938.470703	40176.558594
2937.099609	40051.578125
2935.727539	40137.062500
2934.355469	40118.238281
2932.982422	40342.644531
2931.609375	40038.550781
2930.236328	40394.464844
2928.863281	39865.722656
2927.489258	40093.609375
2926.115234	40323.207031
2924.740234	40406.601563
2923.366211	40524.640625
2921.990234	40465.570313
2920.615234	40618.199219
2919.239258	40281.820313
2917.863281	40872.152344
2916.486328	40492.105469
2915.109375	40657.324219
2913.732422	40585.519531
2912.355469	40550.191406
2910.977539	40507.589844
2909.599609	40623.453125
2908.220703	40477.054688
2906.841797	40765.800781
2905.462891	40577.574219
2904.083008	40860.683594
2902.703125	40868.976563
2901.323242	40740.863281
2899.942383	40854.625000
2898.561523	40593.875000
2897.180664	40987.472656
2895.798828	41001.152344
2894.416992	41225.527344
2893.035156	41095.671875
2891.652344	41214.601563
2890.269531	40906.921875
2888.886719	41176.453125
2887.502930	41438.585938
2886.119141	41355.972656
2884.735352	40961.500000
2883.350586	41408.402344
2881.965820	41053.972656
2880.581055	40951.582031
2879.195313	41164.453125
2877.809570	41161.691406
2876.422852	41158.921875
2875.036133	41608.718750
2873.649414	41109.945313
2872.262695	41452.773438
2870.875000	41404.699219
2869.487305	41041.964844
2868.098633	40728.218750
2866.709961	41016.558594
2865.321289	41134.878906
2863.931641	41327.214844
2862.541992	41082.328125
2861.152344	41565.312500
2859.761719	41105.636719
2858.371094	41001.757813
2856.980469	41273.269531
2855.588867	41124.289063
2854.197266	40946.515625
2852.805664	41053.738281
2851.413086	41180.730469
2850.020508	41682.542969
2848.627930	41659.757813
2847.234375	41271.281250
2845.840820	41030.671875
2844.447266	41279.933594
2843.052734	41199.644531
2841.658203	40750.457031
2840.262695	40672.125000
2838.867188	40545.261719
2837.471680	40583.906250
2836.075195	40209.003906
2834.679688	40350.160156
2833.282227	40651.179688
2831.885742	40547.812500
2830.488281	40324.144531
2829.089844	40457.937500
2827.692383	40299.023438
2826.293945	40420.183594
2824.894531	40480.265625
2823.496094	40226.371094
2822.096680	39879.332031
2820.696289	40570.664063
2819.296875	40471.089844
2817.895508	40385.898438
2816.495117	40164.566406
2815.093750	39703.300781
2813.692383	40399.183594
2812.290039	40217.386719
2810.888672	39785.078125
2809.485352	40040.175781
2808.083008	40253.992188
2806.679688	39877.425781
2805.276367	40196.679688
2803.872070	40447.832031
2802.467773	40352.101563
2801.063477	40308.238281
2799.658203	40376.945313
2798.252930	40233.066406
2796.847656	40703.515625
2795.441406	40347.183594
2794.035156	40064.195313
2792.627930	40156.050781
2791.220703	40335.265625
2789.813477	40667.765625
2788.406250	40401.007813
2786.998047	40383.933594
2785.589844	40742.894531
2784.180664	40647.347656
2782.771484	40421.808594
2781.362305	40848.152344
2779.952148	40875.480469
2778.541992	40582.402344
2777.131836	40949.656250
2775.720703	40509.035156
2774.309570	40561.300781
2772.897461	40979.843750
2771.486328	40759.968750
2770.074219	41284.882813
2768.661133	41333.335938
2767.248047	41111.746094
2765.834961	41138.898438
2764.420898	41201.546875
2763.006836	40815.054688
2761.592773	40870.640625
2760.177734	41030.875000
2758.762695	41084.601563
2757.347656	41409.617188
2755.931641	41145.863281
2754.515625	41016.941406
2753.099609	41013.894531
2751.682617	41501.578125
2750.265625	41409.843750
2748.847656	41481.058594
2747.430664	41104.351563
2746.011719	41575.585938
2744.593750	41692.699219
2743.174805	41429.421875
2741.754883	41829.468750
2740.335938	41911.058594
2738.916016	41936.039063
2737.495117	41634.062500
2736.075195	41682.058594
2734.653320	41761.816406
2733.232422	41670.242188
2731.810547	41864.714844
2730.388672	41801.386719
2728.965820	42085.718750
2727.542969	42156.437500
2726.120117	41976.667969
2724.697266	41885.148438
2723.273438	42100.406250
2721.848633	42304.976563
2720.423828	41920.945313
2718.999023	42252.281250
2717.574219	41840.265625
2716.148438	41910.871094
2714.722656	41988.476563
2713.295898	42129.394531
2711.870117	42067.910156
2710.442383	42073.292969
2709.015625	42250.996094
2707.587891	42242.257813
2706.159180	42326.671875
2704.731445	42358.324219
2703.301758	42124.687500
2701.873047	42567.339844
2700.443359	42502.324219
2699.013672	42251.261719
2697.583984	42107.371094
2696.153320	42261.824219
2694.721680	42293.406250
2693.291016	42186.429688
2691.859375	42253.070313
2690.426758	42165.429688
2688.995117	42487.878906
2687.562500	42380.941406
2686.128906	42536.777344
2684.695313	42597.976563
2683.261719	42316.015625
2681.828125	42764.019531
2680.393555	42606.382813
2678.958008	42303.625000
2677.523438	42812.496094
2676.087891	42649.703125
2674.651367	42770.167969
2673.215820	42362.800781
2671.778320	42374.945313
2670.341797	42160.007813
2668.904297	42727.500000
2667.466797	42411.316406
2666.028320	42535.125000
2664.589844	43053.222656
2663.151367	42615.066406
2661.711914	43064.859375
2660.272461	42579.832031
2658.833008	42443.683594
2657.392578	42562.042969
2655.952148	42966.082031
2654.510742	43056.371094
2653.069336	42747.816406
2651.627930	43195.019531
2650.185547	42794.324219
2648.743164	42654.847656
2647.300781	43023.437500
2645.857422	42901.359375
2644.414063	43120.152344
2642.970703	43001.578125
2641.526367	43063.812500
2640.082031	43105.156250
2638.636719	43050.933594
2637.191406	43472.585938
2635.746094	43015.484375
2634.299805	43247.722656
2632.853516	43507.605469
2631.406250	43168.796875
2629.959961	43482.332031
2628.511719	43681.253906
2627.064453	43881.808594
2625.616211	43836.140625
2624.167969	43852.871094
2622.718750	43897.304688
2621.269531	43557.234375
2619.819336	43683.089844
2618.370117	43644.433594
2616.918945	43882.683594
2615.468750	44046.414063
2614.017578	43822.601563
2612.566406	43863.476563
2611.114258	43918.156250
2609.662109	43694.531250
2608.209961	43979.039063
2606.756836	44120.015625
2605.303711	43917.218750
2603.849609	44515.703125
2602.395508	44040.152344
2600.941406	44291.402344
2599.486328	44097.375000
2598.031250	44160.460938
2596.576172	44164.875000
2595.120117	44039.976563
2593.664063	43970.292969
2592.207031	44236.664063
2590.750000	44042.917969
2589.292969	43992.218750
2587.834961	43988.031250
2586.376953	44465.855469
2584.918945	44205.109375
2583.459961	44133.753906
2582.000977	44196.605469
2580.541016	44104.640625
2579.081055	44580.093750
2577.621094	44682.308594
2576.161133	44509.511719
2574.699219	44709.605469
2573.238281	44305.007813
2571.776367	44367.675781
2570.314453	44416.570313
2568.851563	44530.656250
2567.389648	44402.746094
2565.925781	44341.796875
2564.462891	44838.242188
2562.998047	44518.308594
2561.534180	44462.503906
2560.069336	44543.820313
2558.604492	44508.585938
2557.138672	44245.562500
2555.672852	44462.136719
2554.207031	44837.808594
2552.740234	44610.828125
2551.273438	44488.335938
2549.806641	44728.558594
2548.338867	44695.023438
2546.871094	44519.585938
2545.402344	44407.476563
2543.933594	44473.152344
2542.464844	44572.957031
2540.995117	44520.691406
2539.525391	44628.960938
2538.054688	44539.140625
2536.583984	44649.050781
2535.113281	44475.652344
2533.641602	44977.871094
2532.169922	44645.855469
2530.698242	44748.792969
2529.225586	44884.058594
2527.752930	44799.410156
2526.279297	44387.683594
2524.805664	44686.445313
2523.332031	44847.113281
2521.857422	44823.832031
2520.382813	44855.023438
2518.908203	45008.710938
2517.432617	44905.437500
2515.956055	44836.226563
2514.480469	44824.859375
2513.003906	44648.605469
2511.526367	45050.242188
2510.049805	44962.359375
2508.571289	45163.273438
2507.093750	44956.527344
2505.615234	44882.304688
2504.135742	45398.765625
2502.657227	44985.089844
2501.177734	44712.421875
2499.697266	45182.726563
2498.216797	45169.558594
2496.736328	45525.925781
2495.254883	45182.203125
2493.773438	45629.867188
2492.291992	45276.121094
2490.809570	45085.113281
2489.327148	45176.925781
2487.843750	45558.113281
2486.360352	45615.906250
2484.876953	45468.976563
2483.392578	45503.074219
2481.908203	45557.445313
2480.423828	45447.816406
2478.938477	45275.707031
2477.453125	45791.320313
2475.966797	45808.382813
2474.480469	45604.214844
2472.993164	45486.250000
2471.506836	45788.601563
2470.018555	45856.250000
2468.531250	45993.027344
2467.042969	45697.976563
2465.553711	46030.300781
2464.065430	46084.316406
2462.576172	45759.121094
2461.085938	45890.671875
2459.595703	46055.835938
2458.105469	46097.984375
2456.614258	46151.890625
2455.123047	46072.800781
2453.630859	45780.046875
2452.139648	46389.117188
2450.646484	46286.468750
2449.154297	46175.460938
2447.661133	46439.355469
2446.166992	46422.464844
2444.672852	46301.414063
2443.178711	46326.550781
2441.683594	46598.515625
2440.188477	46395.238281
2438.693359	46400.175781
2437.197266	46363.160156
2435.701172	46218.796875
2434.205078	46198.605469
2432.708008	46371.234375
2431.209961	46169.976563
2429.712891	46253.699219
2428.213867	46138.007813
2426.715820	46357.359375
2425.216797	46871.304688
2423.717773	46594.820313
2422.217773	46345.246094
2420.717773	46641.269531
2419.216797	46251.289063
2417.715820	46446.835938
2416.214844	46682.402344
2414.713867	46728.960938
2413.210938	46566.609375
2411.708984	46676.648438
2410.206055	46556.140625
2408.703125	46420.656250
2407.199219	46619.113281
2405.695313	46865.867188
2404.191406	46792.132813
2402.686523	46921.937500
2401.181641	46864.890625
2399.675781	46812.875000
2398.169922	47025.902344
2396.664063	46708.902344
2395.157227	46716.925781
2393.650391	46716.613281
2392.142578	46854.500000
2390.634766	46920.726563
2389.126953	46912.027344
2387.618164	47222.781250
2386.109375	47104.214844
2384.599609	47015.636719
2383.089844	46910.472656
2381.580078	46733.890625
2380.069336	46927.949219
2378.558594	47155.132813
2377.047852	47297.488281
2375.536133	46921.718750
2374.023438	46894.734375
2372.511719	47060.269531
2370.998047	47177.597656
2369.485352	47208.613281
2367.971680	47201.464844
2366.458008	47645.250000
2364.943359	47114.234375
2363.428711	47125.328125
2361.913086	47172.859375
2360.397461	47003.402344
2358.881836	47196.632813
2357.365234	47123.257813
2355.848633	47225.328125
2354.332031	47388.562500
2352.814453	47545.085938
2351.295898	47471.679688
2349.778320	47070.972656
2348.258789	47313.390625
2346.740234	47522.628906
2345.220703	47568.222656
2343.701172	47316.515625
2342.180664	47241.601563
2340.660156	47465.484375
2339.138672	47410.359375
2337.617188	47086.347656
2336.095703	47343.070313
2334.573242	47644.175781
2333.050781	47559.375000
2331.528320	47370.781250
2330.004883	47651.863281
2328.480469	47756.542969
2326.957031	47999.492188
2325.431641	47410.890625
2323.907227	47734.449219
2322.381836	47508.226563
2320.856445	47250.863281
2319.330078	47712.351563
2317.803711	47857.898438
2316.276367	47817.613281
2314.749023	47900.601563
2313.221680	47763.382813
2311.693359	47742.851563
2310.165039	47523.625000
2308.635742	47478.531250
2307.106445	47840.496094
2305.577148	47869.171875
2304.046875	47758.390625
2302.516602	48188.871094
2300.985352	48071.500000
2299.454102	47491.933594
2297.922852	48244.968750
2296.390625	47585.371094
2294.858398	47677.910156
2293.325195	47961.980469
2291.791992	47853.003906
2290.258789	47567.324219
2288.724609	47946.089844
2287.190430	47686.695313
2285.655273	48004.718750
2284.120117	47802.660156
2282.583984	48091.054688
2281.048828	47869.460938
2279.511719	47661.042969
2277.975586	48187.695313
2276.438477	47835.605469
2274.900391	48105.640625
2273.362305	48106.253906
2271.824219	47813.179688
2270.285156	48166.187500
2268.746094	47951.515625
2267.206055	48309.187500
2265.666016	47885.957031
2264.125977	47935.484375
2262.584961	48045.253906
2261.043945	47850.410156
2259.502930	48440.457031
2257.960938	48281.414063
2256.417969	47876.718750
2254.875000	47981.460938
2253.332031	48331.742188
2251.789063	48054.171875
2250.245117	48023.839844
2248.700195	48707.003906
2247.155273	48137.066406
2245.610352	48546.937500
2244.064453	48380.078125
2242.518555	48640.296875
2240.972656	48596.847656
2239.425781	48550.171875
2237.877930	48703.058594
2236.331055	48849.375000
2234.783203	48646.996094
2233.234375	48650.589844
2231.685547	48926.441406
2230.136719	48283.492188
2228.586914	48824.929688
2227.037109	48757.203125
2225.486328	48555.132813
2223.935547	48582.996094
2222.384766	48952.257813
2220.833008	48806.902344
2219.281250	49051.375000
2217.728516	49067.742188
2216.175781	48673.527344
2214.622070	49279.816406
2213.068359	49296.097656
2211.514648	49076.554688
2209.959961	48941.085938
2208.405273	49052.675781
2206.850586	49054.457031
2205.294922	49359.566406
2203.738281	49132.199219
2202.181641	49214.578125
2200.625000	49298.519531
2199.068359	49185.773438
2197.510742	49269.667969
2195.952148	49429.234375
2194.393555	49627.363281
2192.834961	49239.296875
2191.275391	49649.843750
2189.715820	49653.023438
2188.155273	49553.230469
2186.595703	49841.117188
2185.034180	49813.679688
2183.472656	49615.843750
2181.911133	49569.179688
2180.349609	49504.863281
2178.787109	49651.007813
2177.223633	49943.210938
2175.660156	49639.609375
2174.096680	49649.160156
2172.532227	49596.113281
2170.967773	49719.562500
2169.403320	49854.167969
2167.837891	50157.062500
2166.271484	49919.574219
2164.705078	49853.683594
2163.138672	49895.167969
2161.572266	50452.398438
2160.003906	50032.507813
2158.436523	50024.273438
2156.868164	49926.410156
2155.299805	50129.406250
2153.730469	50169.128906
2152.161133	49984.929688
2150.590820	50242.101563
2149.020508	50304.128906
2147.450195	50449.214844
2145.878906	50202.808594
2144.307617	50116.242188
2142.735352	50353.863281
2141.163086	50241.753906
