#Wave		#Intensity
3550.258789	38775.109375
3549.027344	38290.164063
3547.794922	38267.734375
3546.562500	38377.695313
3545.330078	38459.097656
3544.096680	38357.234375
3542.863281	38572.933594
3541.629883	38487.363281
3540.396484	38645.968750
3539.162109	38594.988281
3537.928711	38655.875000
3536.693359	38637.437500
3535.458984	38497.035156
3534.223633	38303.847656
3532.989258	38411.464844
3531.752930	38470.273438
3530.517578	38437.656250
3529.281250	38356.312500
3528.044922	38222.214844
3526.808594	38668.679688
3525.571289	38431.066406
3524.333984	38315.289063
3523.096680	38090.019531
3521.859375	38359.671875
3520.621094	38761.000000
3519.382813	38663.472656
3518.144531	38807.164063
3516.906250	39017.652344
3515.666992	38835.039063
3514.427734	38640.347656
3513.188477	38763.648438
3511.948242	38943.582031
3510.708008	38676.113281
3509.467773	38422.917969
3508.227539	38353.937500
3506.986328	38952.500000
3505.745117	39018.925781
3504.503906	38907.390625
3503.262695	38941.445313
3502.020508	38678.390625
3500.778320	38950.898438
3499.535156	38734.410156
3498.292969	39069.394531
3497.049805	38667.187500
3495.806641	39205.933594
3494.563477	38555.601563
3493.319336	38900.406250
3492.075195	38964.617188
3490.831055	39044.937500
3489.585938	39082.863281
3488.340820	39106.656250
3487.095703	39261.464844
3485.850586	39319.460938
3484.604492	39216.234375
3483.358398	39040.527344
3482.112305	39052.199219
3480.866211	39418.253906
3479.619141	39242.605469
3478.372070	39048.914063
3477.125000	39446.914063
3475.876953	39555.031250
3474.629883	38973.179688
3473.380859	38811.871094
3472.132813	39165.328125
3470.883789	39048.265625
3469.634766	39061.875000
3468.385742	39306.535156
3467.136719	39221.640625
3465.886719	39295.441406
3464.636719	39361.171875
3463.386719	39244.191406
3462.135742	39075.070313
3460.884766	39028.425781
3459.633789	39066.054688
3458.381836	39378.445313
3457.130859	39155.285156
3455.878906	39375.289063
3454.625977	39300.546875
3453.374023	39620.613281
3452.121094	39854.382813
3450.868164	39252.753906
3449.614258	39216.132813
3448.361328	39233.582031
3447.107422	39429.183594
3445.853516	39540.632813
3444.598633	39606.011719
3443.343750	39585.335938
3442.088867	39372.660156
3440.833984	39380.031250
3439.578125	39623.292969
3438.322266	39024.984375
3437.066406	39266.210938
3435.809570	39707.109375
3434.553711	39290.925781
3433.295898	39585.843750
3432.039063	39706.925781
3430.782227	39530.531250
3429.524414	39310.308594
3428.265625	39537.105469
3427.007813	39372.820313
3425.749023	39322.281250
3424.490234	39522.992188
3423.231445	39157.468750
3421.971680	39136.890625
3420.711914	39425.167969
3419.452148	39607.734375
3418.192383	39367.972656
3416.931641	39339.382813
3415.670898	39468.082031
3414.409180	39427.531250
3413.148438	39176.062500
3411.886719	39571.292969
3410.625000	39689.859375
3409.362305	39227.691406
3408.099609	39159.386719
3406.836914	39266.027344
3405.574219	39229.527344
3404.311523	39226.820313
3403.047852	39180.406250
3401.783203	39549.082031
3400.519531	39022.105469
3399.254883	39192.132813
3397.990234	38988.960938
3396.725586	39272.011719
3395.459961	39045.097656
3394.194336	39411.304688
3392.928711	39285.582031
3391.663086	38941.835938
3390.396484	39254.292969
3389.129883	39158.398438
3387.862305	39036.785156
3386.595703	39137.066406
3385.328125	39094.714844
3384.060547	38658.390625
3382.791992	38713.144531
3381.523438	39250.738281
3380.254883	39067.910156
3378.986328	39140.328125
3377.716797	39246.328125
3376.447266	39358.210938
3375.177734	39177.476563
3373.908203	38745.824219
3372.637695	39079.031250
3371.367188	38708.824219
3370.095703	39186.054688
3368.825195	39238.535156
3367.553711	38874.449219
3366.282227	39367.101563
3365.009766	39149.160156
3363.737305	39045.734375
3362.464844	38620.855469
3361.192383	38722.667969
3359.918945	38814.570313
3358.645508	38843.355469
3357.372070	39224.859375
3356.097656	38757.046875
3354.823242	39124.605469
3353.548828	38873.640625
3352.274414	38947.640625
3350.999023	38891.687500
3349.723633	38818.042969
3348.447266	38858.546875
3347.171875	39384.894531
3345.895508	39075.179688
3344.619141	39259.117188
3343.341797	39342.714844
3342.064453	39341.761719
3340.787109	38812.250000
3339.509766	39145.359375
3338.231445	38561.128906
3336.953125	39064.968750
3335.674805	39130.800781
3334.395508	38690.230469
3333.117188	39154.441406
3331.836914	39075.027344
3330.557617	39387.910156
3329.277344	39324.156250
3327.997070	39036.929688
3326.716797	39186.917969
3325.435547	39195.742188
3324.154297	39392.636719
3322.873047	39015.535156
3321.591797	39210.414063
3320.309570	39121.316406
3319.027344	39157.527344
3317.744141	39136.964844
3316.461914	39310.101563
3315.178711	39101.722656
3313.894531	39173.089844
3312.611328	39365.640625
3311.327148	39106.554688
3310.042969	39627.347656
3308.757813	39346.820313
3307.472656	39513.746094
3306.187500	39512.632813
3304.902344	39247.929688
3303.616211	39416.703125
3302.330078	39099.433594
3301.043945	39195.960938
3299.757813	39112.968750
3298.470703	39174.335938
3297.183594	39294.167969
3295.895508	39624.480469
3294.607422	39673.980469
3293.319336	39805.296875
3292.031250	39274.183594
3290.742188	39724.941406
3289.454102	39332.335938
3288.164063	39722.515625
3286.875000	39666.796875
3285.584961	40010.011719
3284.294922	39312.238281
3283.003906	39707.886719
3281.713867	39957.507813
3280.422852	39944.546875
3279.130859	39785.812500
3277.839844	39739.855469
3276.547852	39688.082031
3275.254883	39745.105469
3273.962891	40190.488281
3272.669922	39831.878906
3271.376953	39915.992188
3270.083008	39891.386719
3268.790039	39837.683594
3267.496094	39976.039063
3266.201172	39992.148438
3264.907227	40074.167969
3263.612305	39814.984375
3262.316406	40030.718750
3261.021484	39973.156250
3259.725586	40086.082031
3258.429688	39827.113281
3257.132813	40247.867188
3255.836914	40079.953125
3254.540039	39914.046875
3253.242188	39798.515625
3251.945313	40149.234375
3250.647461	40215.492188
3249.348633	40335.855469
3248.050781	40090.800781
3246.751953	39892.234375
3245.453125	40339.121094
3244.153320	40144.445313
3242.853516	39969.167969
3241.553711	40143.460938
3240.253906	39981.765625
3238.953125	39988.054688
3237.652344	40241.320313
3236.351563	39861.710938
3235.049805	40460.117188
3233.748047	39841.519531
3232.446289	40322.054688
3231.143555	40137.417969
3229.840820	40293.929688
3228.538086	39939.847656
3227.235352	40134.843750
3225.931641	40298.937500
3224.627930	40422.523438
3223.324219	40012.902344
3222.019531	40365.476563
3220.714844	40140.734375
3219.410156	40262.300781
3218.104492	40203.050781
3216.798828	40082.304688
3215.493164	40326.800781
3214.186523	39817.902344
3212.879883	40198.742188
3211.573242	40053.117188
3210.266602	40084.226563
3208.958984	40036.597656
3207.651367	40038.894531
3206.343750	40459.519531
3205.035156	40045.390625
3203.726563	40281.675781
3202.417969	40439.222656
3201.108398	40355.128906
3199.798828	40106.226563
3198.489258	39901.511719
3197.178711	40110.710938
3195.868164	40189.562500
3194.557617	40312.417969
3193.247070	40004.441406
3191.935547	40244.035156
3190.624023	39955.339844
3189.311523	40336.406250
3188.000000	40285.000000
3186.687500	40451.621094
3185.374023	40048.414063
3184.061523	40042.972656
3182.748047	39999.308594
3181.433594	40156.273438
3180.120117	39929.222656
3178.805664	40166.324219
3177.491211	40109.289063
3176.175781	40277.515625
3174.860352	39863.613281
3173.544922	39896.347656
3172.229492	39705.886719
3170.913086	40013.246094
3169.596680	39809.496094
3168.280273	39994.683594
3166.962891	40107.367188
3165.645508	39711.292969
3164.327148	39715.406250
3163.009766	39879.480469
3161.691406	39893.062500
3160.373047	39760.066406
3159.053711	40089.570313
3157.734375	39878.574219
3156.415039	39791.312500
3155.094727	39702.187500
3153.774414	39808.929688
3152.454102	40212.148438
3151.133789	40067.863281
3149.812500	39803.941406
3148.491211	40197.367188
3147.168945	39529.031250
3145.847656	40057.132813
3144.525391	39848.488281
3143.202148	39539.359375
3141.879883	39549.113281
3140.556641	39888.914063
3139.232422	39794.273438
3137.909180	39766.027344
3136.584961	39845.839844
3135.259766	39698.199219
3133.935547	40014.808594
3132.610352	39823.621094
3131.285156	39579.492188
3129.958984	39645.980469
3128.632813	39803.289063
3127.306641	39638.804688
3125.980469	39682.515625
3124.653320	39947.507813
3123.326172	39977.878906
3121.998047	40021.464844
3120.670898	39879.781250
3119.341797	39668.242188
3118.013672	40048.156250
3116.684570	40029.335938
3115.355469	39961.417969
3114.026367	39884.085938
3112.696289	39791.687500
3111.366211	40191.867188
3110.036133	40248.476563
3108.705078	40325.804688
3107.374023	39884.500000
3106.042969	39954.328125
3104.711914	39635.828125
3103.379883	39973.265625
3102.046875	39602.148438
3100.714844	39700.214844
3099.381836	40061.867188
3098.048828	39962.085938
3096.714844	40193.625000
3095.380859	40114.550781
3094.046875	39653.589844
3092.712891	39903.832031
3091.377930	39956.503906
3090.042969	39839.941406
3088.707031	40099.347656
3087.372070	40292.859375
3086.036133	40202.589844
3084.699219	40044.738281
3083.362305	39947.050781
3082.025391	40091.585938
3080.688477	40519.464844
3079.350586	40127.109375
3078.012695	40380.300781
3076.674805	40344.519531
3075.335938	40486.894531
3073.997070	40329.238281
3072.658203	40306.601563
3071.318359	40446.996094
3069.978516	40231.375000
3068.638672	40143.210938
3067.298828	40279.789063
3065.958008	40332.050781
3064.616211	40550.863281
3063.275391	40430.878906
3061.933594	40211.796875
3060.591797	40408.023438
3059.249023	40553.667969
3057.906250	40551.550781
3056.563477	40347.585938
3055.219727	40328.695313
3053.876953	40537.714844
3052.532227	40434.734375
3051.188477	40723.914063
3049.843750	40682.535156
3048.499023	40497.460938
3047.153320	40622.207031
3045.808594	40465.210938
3044.461914	40533.949219
3043.116211	40347.203125
3041.769531	40499.812500
3040.422852	40639.300781
3039.076172	40497.367188
3037.728516	40711.292969
3036.380859	40656.933594
3035.032227	40258.140625
3033.683594	40332.347656
3032.334961	40194.355469
3030.986328	40378.304688
3029.636719	40478.457031
3028.287109	40727.335938
3026.937500	40522.429688
3025.586914	40194.937500
3024.236328	40557.050781
3022.885742	40670.027344
3021.534180	40025.089844
3020.182617	40227.265625
3018.830078	40154.566406
3017.478516	40102.316406
3016.125977	40300.605469
3014.772461	40278.019531
3013.419922	40350.035156
3012.066406	39989.937500
3010.711914	40505.074219
3009.358398	40445.375000
3008.003906	40515.410156
3006.648438	40183.390625
3005.292969	40199.734375
3003.937500	40330.875000
3002.582031	40230.535156
3001.225586	40483.753906
2999.869141	40464.835938
2998.512695	40346.023438
2997.155273	40119.992188
2995.797852	39849.683594
2994.440430	40293.082031
2993.082031	39991.433594
2991.723633	40360.664063
2990.365234	40168.128906
2989.005859	40326.585938
2987.646484	39943.960938
2986.287109	39866.101563
2984.926758	40192.449219
2983.566406	39976.175781
2982.206055	40178.742188
2980.844727	39995.765625
2979.483398	40192.687500
2978.122070	40070.617188
2976.759766	39943.066406
2975.397461	40184.070313
2974.035156	40288.640625
2972.671875	39949.339844
2971.308594	40186.468750
2969.945313	40046.140625
2968.581055	39835.945313
2967.216797	39719.675781
2965.852539	40223.328125
2964.487305	40276.195313
2963.122070	40295.941406
2961.756836	40271.558594
2960.390625	40182.867188
2959.024414	40169.539063
2957.658203	39843.968750
2956.291016	40354.058594
2954.923828	40214.011719
2953.556641	40235.542969
2952.188477	39994.660156
2950.820313	40401.472656
2949.452148	40481.621094
2948.083008	39874.117188
2946.713867	40137.664063
2945.343750	40595.351563
2943.974609	40277.746094
2942.604492	39954.796875
2941.233398	40064.214844
2939.862305	39984.984375
2938.491211	40275.554688
2937.120117	40558.664063
2935.748047	40384.214844
2934.375977	40637.882813
2933.003906	40981.035156
2931.630859	40621.937500
2930.257813	40677.937500
2928.883789	40521.925781
2927.509766	40283.765625
2926.135742	40593.687500
2924.761719	40728.148438
2923.386719	40665.367188
2922.011719	40843.542969
2920.635742	40267.984375
2919.260742	40316.632813
2917.883789	40888.718750
2916.507813	40853.300781
2915.130859	40697.578125
2913.753906	40567.445313
2912.375977	40962.148438
2910.998047	40928.554688
2909.620117	40935.039063
2908.242188	41092.648438
2906.863281	40720.441406
2905.483398	40586.824219
2904.104492	41264.769531
2902.724609	40903.691406
2901.344727	40655.539063
2899.963867	40902.050781
2898.583008	40655.828125
2897.202148	40929.468750
2895.820313	41083.062500
2894.438477	41214.781250
2893.056641	41041.343750
2891.673828	41053.171875
2890.291016	41380.816406
2888.908203	40775.562500
2887.524414	41342.585938
2886.140625	41287.203125
2884.755859	41438.562500
2883.372070	41444.812500
2881.987305	41422.054688
2880.601563	41468.160156
2879.215820	41028.734375
2877.830078	41076.718750
2876.444336	41139.156250
2875.057617	41199.753906
2873.670898	40541.816406
2872.283203	41319.031250
2870.895508	41187.777344
2869.507813	41306.156250
2868.120117	41091.789063
2866.731445	41112.515625
2865.342773	41042.863281
2863.953125	41096.105469
2862.563477	41019.257813
2861.173828	40985.785156
2859.783203	41080.511719
2858.392578	40911.660156
2857.001953	41396.128906
2855.610352	41155.109375
2854.218750	40804.179688
2852.827148	40830.289063
2851.434570	41161.054688
2850.041992	41086.125000
2848.649414	40960.773438
2847.255859	40513.019531
2845.862305	40719.250000
2844.467773	40817.339844
2843.073242	40625.554688
2841.678711	40930.574219
2840.284180	40767.636719
2838.888672	40563.402344
2837.493164	40724.332031
2836.096680	40635.265625
2834.700195	40402.437500
2833.303711	40372.789063
2831.906250	40309.011719
2830.509766	40597.316406
2829.111328	40380.871094
2827.713867	40085.531250
2826.315430	40303.667969
2824.916016	40275.851563
2823.517578	40472.296875
2822.118164	40412.164063
2820.717773	40529.574219
2819.317383	40157.523438
2817.916992	40267.761719
2816.516602	40374.355469
2815.115234	40217.566406
2813.713867	40125.324219
2812.311523	40289.156250
2810.909180	40270.324219
2809.506836	40271.179688
2808.104492	40093.117188
2806.701172	40201.332031
2805.296875	40220.074219
2803.893555	40317.468750
2802.489258	40366.550781
2801.084961	40131.480469
2799.679688	40303.847656
2798.274414	40018.886719
2796.868164	40332.253906
2795.462891	40168.812500
2794.056641	40192.847656
2792.649414	39949.218750
2791.242188	39971.503906
2789.834961	40095.429688
2788.427734	40180.062500
2787.019531	40168.394531
2785.611328	40065.839844
2784.202148	40168.222656
2782.792969	40038.988281
2781.383789	40474.332031
2779.973633	40282.765625
2778.563477	40473.976563
2777.153320	40328.761719
2775.742188	40333.058594
2774.331055	40253.750000
2772.918945	40373.636719
2771.507813	40333.460938
2770.095703	40060.472656
2768.682617	40180.304688
2767.269531	40022.949219
2765.856445	40581.390625
2764.442383	40557.171875
2763.028320	40378.527344
2761.614258	40664.929688
2760.200195	40555.535156
2758.785156	40096.746094
2757.369141	40301.421875
2755.953125	40138.996094
2754.537109	40499.527344
2753.121094	40438.128906
2751.704102	40584.039063
2750.287109	40547.437500
2748.869141	40579.910156
2747.452148	40490.210938
2746.033203	40260.734375
2744.615234	40337.480469
2743.196289	40525.625000
2741.777344	40545.664063
2740.357422	40698.292969
2738.937500	40785.441406
2737.516602	40340.605469
2736.096680	40671.605469
2734.675781	40560.851563
2733.253906	40865.136719
2731.832031	40810.875000
2730.410156	40869.601563
2728.988281	40705.953125
2727.565430	40884.628906
2726.141602	40668.136719
2724.718750	40742.691406
2723.294922	40729.058594
2721.870117	40902.250000
2720.446289	40818.097656
2719.021484	40644.148438
2717.595703	40435.054688
2716.169922	40641.582031
2714.744141	40877.925781
2713.318359	40778.027344
2711.891602	40822.441406
2710.463867	40384.882813
2709.037109	40264.066406
2707.609375	40278.675781
2706.181641	40579.761719
2704.752930	40585.492188
2703.324219	40888.101563
2701.894531	40530.187500
2700.464844	40613.171875
2699.035156	40808.457031
2697.605469	40408.695313
2696.174805	40442.507813
2694.744141	40562.250000
2693.312500	40648.605469
2691.880859	40478.945313
2690.449219	40886.035156
2689.016602	40798.750000
2687.583984	40536.312500
2686.150391	40478.925781
2684.717773	40566.898438
2683.283203	40752.863281
2681.849609	40518.683594
2680.415039	40519.082031
2678.980469	40804.617188
2677.544922	40399.195313
2676.109375	40758.046875
2674.673828	40775.847656
2673.237305	40528.007813
2671.800781	40685.621094
2670.363281	40486.824219
2668.925781	40344.007813
2667.488281	40894.347656
2666.050781	40571.714844
2664.612305	40329.503906
2663.172852	40629.957031
2661.734375	40729.687500
2660.294922	40269.652344
2658.854492	40275.281250
2657.414063	40301.812500
2655.973633	40305.679688
2654.533203	40595.214844
2653.091797	40309.914063
2651.650391	40548.800781
2650.208008	40399.414063
2648.765625	40589.429688
2647.323242	40587.972656
2645.879883	40565.644531
2644.436523	40678.953125
2642.992188	40738.308594
2641.547852	40307.515625
2640.103516	40731.816406
2638.659180	40765.042969
2637.213867	40511.699219
2635.767578	40472.035156
2634.321289	40873.285156
2632.875000	40649.593750
2631.428711	40592.562500
2629.981445	40983.062500
2628.534180	40761.230469
2627.085938	40783.953125
2625.637695	40749.460938
2624.189453	40588.492188
2622.740234	41371.722656
2621.291016	40964.738281
2619.841797	41002.941406
2618.391602	40978.800781
2616.941406	40947.750000
2615.490234	41165.855469
2614.040039	41037.898438
2612.587891	40929.023438
2611.136719	40794.265625
2609.684570	41105.507813
2608.231445	40749.582031
2606.778320	40765.257813
2605.325195	40844.824219
2603.872070	40660.164063
2602.417969	40713.816406
2600.962891	41116.054688
2599.508789	40567.394531
2598.053711	40798.683594
2596.597656	40747.035156
2595.142578	40540.238281
2593.685547	40816.167969
2592.229492	41035.085938
2590.772461	41181.531250
2589.315430	41067.824219
2587.857422	40757.871094
2586.399414	40663.257813
2584.941406	40692.601563
2583.482422	40653.105469
2582.023438	40424.398438
2580.563477	40744.410156
2579.103516	40598.316406
2577.643555	40644.808594
2576.182617	40608.789063
2574.721680	40706.789063
2573.260742	40990.230469
2571.798828	40751.515625
2570.336914	40677.718750
2568.874023	40655.445313
2567.411133	40924.875000
2565.948242	40336.453125
2564.484375	40938.523438
2563.020508	40508.125000
2561.556641	40556.183594
2560.091797	40739.589844
2558.626953	40492.875000
2557.161133	40796.097656
2555.695313	40530.648438
2554.229492	40510.136719
2552.762695	40428.019531
2551.295898	40443.472656
2549.829102	40298.109375
2548.361328	40364.886719
2546.892578	40481.207031
2545.424805	40517.125000
2543.956055	40600.871094
2542.486328	40378.750000
2541.017578	40452.234375
2539.547852	40237.085938
2538.077148	40401.039063
2536.606445	40274.757813
2535.135742	40373.769531
2533.664063	40138.371094
2532.192383	40061.699219
2530.720703	40416.437500
2529.248047	40320.972656
2527.775391	40089.218750
2526.301758	40210.253906
2524.828125	40060.394531
2523.354492	40249.484375
2521.879883	40435.066406
2520.405273	40339.718750
2518.929688	40503.058594
2517.455078	40138.949219
2515.978516	40317.550781
2514.502930	40123.695313
2513.026367	40135.621094
2511.548828	40190.019531
2510.071289	40427.878906
2508.593750	40071.113281
2507.116211	40081.324219
2505.637695	40118.687500
2504.158203	40152.632813
2502.679688	40378.304688
2501.200195	40088.144531
2499.719727	40186.507813
2498.239258	40513.718750
2496.758789	39915.218750
2495.277344	40455.859375
2493.795898	40179.578125
2492.314453	40508.136719
2490.832031	39944.101563
2489.349609	40543.417969
2487.867188	40418.019531
2486.383789	40676.792969
2484.899414	40329.804688
2483.415039	40087.847656
2481.930664	40150.355469
2480.446289	40368.347656
2478.960938	40435.816406
2477.475586	40354.566406
2475.989258	40447.332031
2474.502930	40271.550781
2473.016602	40409.863281
2471.529297	40556.542969
2470.041992	40352.167969
2468.553711	40537.582031
2467.065430	40476.660156
2465.577148	40393.851563
2464.087891	40299.277344
2462.598633	40353.050781
2461.108398	40450.593750
2459.618164	40243.214844
2458.127930	40456.921875
2456.636719	40325.394531
2455.145508	40535.601563
2453.654297	40326.710938
2452.162109	40390.445313
2450.669922	40156.464844
2449.176758	40692.667969
2447.683594	40495.703125
2446.189453	40288.750000
2444.696289	40407.835938
2443.201172	40214.441406
2441.707031	40346.910156
2440.211914	40083.113281
2438.715820	40698.914063
2437.220703	40378.101563
2435.723633	40423.148438
2434.227539	40159.582031
2432.730469	40265.011719
2431.233398	40294.957031
2429.735352	40150.597656
2428.237305	40301.171875
2426.738281	40404.769531
2425.239258	40252.109375
2423.740234	39821.621094
2422.240234	40069.183594
2420.740234	40157.660156
2419.240234	39801.117188
2417.739258	40043.468750
2416.238281	40023.195313
2414.736328	40148.347656
2413.234375	40029.453125
2411.731445	40408.476563
2410.229492	39863.656250
2408.725586	40027.113281
2407.222656	40105.347656
2405.718750	40168.511719
2404.213867	40029.750000
2402.708984	40239.687500
2401.204102	40015.921875
2399.699219	40269.093750
2398.193359	40260.445313
2396.686523	40075.160156
2395.179688	40106.539063
2393.672852	39994.664063
2392.166016	40365.722656
2390.658203	40212.210938
2389.149414	40128.675781
2387.641602	40071.800781
2386.131836	40006.632813
2384.623047	40032.957031
2383.113281	39992.761719
2381.603516	40198.578125
2380.092773	40083.578125
2378.582031	39947.035156
2377.070313	39886.960938
2375.558594	40027.820313
2374.046875	39921.265625
2372.534180	39977.402344
2371.021484	40010.273438
2369.507813	39795.976563
2367.994141	39860.382813
2366.480469	39946.300781
2364.965820	39685.765625
2363.451172	40086.511719
2361.936523	39998.351563
2360.420898	39655.183594
2358.904297	40280.796875
2357.388672	40017.179688
2355.872070	39591.515625
2354.354492	40029.695313
2352.836914	40219.542969
2351.319336	39627.128906
2349.800781	40033.542969
2348.282227	40130.675781
2346.763672	39822.929688
2345.244141	39802.773438
2343.723633	39923.000000
2342.204102	39788.898438
2340.682617	39884.296875
2339.162109	39959.843750
2337.640625	40002.347656
2336.119141	39731.453125
2334.596680	39412.871094
2333.074219	39981.347656
2331.550781	39854.039063
2330.027344	39713.609375
2328.503906	39785.738281
2326.979492	39577.871094
2325.455078	39691.152344
2323.930664	39736.886719
2322.405273	39894.492188
2320.878906	40033.914063
2319.353516	39885.441406
2317.826172	39794.589844
2316.299805	39532.820313
2314.772461	39844.738281
2313.245117	39711.238281
2311.716797	39592.585938
2310.188477	39667.761719
2308.659180	39545.894531
2307.129883	39525.839844
2305.600586	39530.410156
2304.070313	39356.164063
2302.540039	39851.136719
2301.008789	39596.546875
2299.477539	39578.128906
2297.946289	39582.660156
2296.414063	39600.289063
2294.881836	39940.578125
2293.348633	39411.175781
2291.815430	39571.253906
2290.282227	39480.835938
2288.748047	39365.914063
2287.213867	39447.347656
2285.678711	39489.488281
2284.143555	39049.289063
2282.607422	39500.132813
2281.072266	39610.847656
2279.535156	39558.128906
2277.999023	39897.421875
2276.460938	39542.574219
2274.923828	39403.386719
2273.385742	39414.410156
2271.847656	39280.218750
2270.308594	39377.710938
2268.769531	38950.054688
2267.229492	39269.300781
2265.689453	39193.941406
2264.149414	39232.683594
2262.608398	39545.078125
2261.067383	39279.148438
2259.526367	39469.246094
2257.984375	39701.566406
2256.441406	39235.625000
2254.898438	39783.503906
2253.355469	39062.414063
2251.812500	39210.027344
2250.268555	39258.394531
2248.723633	39171.835938
2247.178711	39428.156250
2245.633789	39447.179688
2244.087891	39678.929688
2242.541992	39217.292969
2240.996094	39325.617188
2239.449219	39560.453125
2237.902344	39365.253906
2236.354492	39330.718750
2234.806641	39317.277344
2233.257813	39754.488281
2231.708984	39486.496094
2230.160156	39463.292969
2228.610352	39822.363281
2227.060547	39386.136719
2225.509766	39173.550781
2223.958984	39351.132813
2222.408203	39245.453125
2220.856445	39466.593750
2219.304688	39430.472656
2217.751953	39674.078125
2216.199219	39167.535156
2214.645508	39459.558594
2213.092773	39231.207031
2211.538086	39434.218750
2209.983398	39409.441406
2208.428711	39381.445313
2206.874023	39606.843750
2205.318359	39512.652344
2203.761719	39213.644531
2202.206055	39327.628906
2200.648438	39425.425781
2199.091797	39428.070313
2197.534180	39319.527344
2195.975586	39467.179688
2194.416992	39912.703125
2192.858398	39713.937500
2191.298828	39669.804688
2189.739258	39823.636719
2188.179688	39684.566406
2186.619141	39809.355469
2185.057617	39917.992188
2183.497070	39610.195313
2181.934570	39276.839844
2180.373047	39522.097656
2178.810547	39839.507813
2177.247070	39997.765625
2175.683594	40005.011719
2174.120117	39712.097656
2172.555664	39891.113281
2170.991211	39859.867188
2169.426758	39527.113281
2167.861328	39914.468750
2166.295898	40035.523438
2164.729492	39395.269531
2163.163086	39673.398438
2161.595703	39892.113281
2160.028320	39511.808594
2158.459961	39839.308594
2156.892578	39848.132813
2155.323242	39594.531250
2153.754883	39659.394531
2152.184570	39796.187500
2150.615234	39686.683594
2149.044922	39925.691406
2147.473633	39782.644531
2145.903320	39700.375000
2144.331055	39718.769531
2142.759766	39674.878906
2141.187500	39937.503906
