#Wave		#Intensity
3550.405273	59765.714844
3549.173828	59971.515625
3547.941406	60080.953125
3546.708984	60037.578125
3545.476563	59821.128906
3544.243164	60296.964844
3543.010742	60143.636719
3541.777344	60694.484375
3540.542969	60227.796875
3539.309570	60249.496094
3538.075195	59809.527344
3536.840820	60262.351563
3535.605469	60184.402344
3534.371094	59760.968750
3533.135742	60197.234375
3531.900391	59940.554688
3530.664063	59943.957031
3529.428711	59512.785156
3528.192383	59564.992188
3526.955078	59927.726563
3525.718750	60198.976563
3524.481445	60226.632813
3523.244141	60197.472656
3522.006836	60626.656250
3520.768555	60423.035156
3519.530273	60497.218750
3518.291992	60376.792969
3517.053711	60311.125000
3515.814453	60144.183594
3514.575195	60672.031250
3513.335938	60814.894531
3512.095703	60409.035156
3510.855469	60363.636719
3509.615234	60298.011719
3508.375000	60566.250000
3507.133789	60486.437500
3505.892578	60568.445313
3504.651367	60363.292969
3503.410156	60505.921875
3502.167969	61141.628906
3500.925781	61243.601563
3499.683594	60773.804688
3498.440430	60550.617188
3497.197266	60905.050781
3495.954102	61150.300781
3494.710938	60971.558594
3493.466797	60724.281250
3492.222656	61199.394531
3490.978516	60925.933594
3489.734375	60991.390625
3488.489258	61127.386719
3487.244141	61249.203125
3485.999023	61377.003906
3484.752930	61043.320313
3483.506836	60951.511719
3482.260742	61165.882813
3481.014648	61321.757813
3479.767578	61692.968750
3478.520508	61051.585938
3477.273438	61438.781250
3476.025391	61288.621094
3474.777344	61454.324219
3473.529297	61642.066406
3472.281250	61636.703125
3471.032227	61609.222656
3469.784180	61503.371094
3468.534180	61168.496094
3467.285156	61611.187500
3466.035156	61784.550781
3464.785156	61552.218750
3463.535156	61739.558594
3462.284180	61852.546875
3461.033203	61395.589844
3459.782227	61500.562500
3458.531250	61559.351563
3457.279297	61886.824219
3456.027344	62196.101563
3454.775391	61683.406250
3453.522461	61734.058594
3452.270508	62005.078125
3451.016602	61685.042969
3449.763672	61721.625000
3448.509766	61932.378906
3447.255859	62008.914063
3446.001953	61977.328125
3444.748047	61425.503906
3443.493164	61932.187500
3442.238281	61772.617188
3440.983398	61939.050781
3439.727539	61885.488281
3438.471680	61608.082031
3437.215820	61844.363281
3435.958984	61944.675781
3434.703125	62076.898438
3433.446289	61665.867188
3432.188477	61971.777344
3430.931641	61836.402344
3429.673828	61453.613281
3428.416016	61731.417969
3427.157227	61773.703125
3425.898438	61778.070313
3424.639648	61688.710938
3423.380859	61575.460938
3422.121094	61619.710938
3420.862305	62257.734375
3419.601563	62010.937500
3418.341797	61814.035156
3417.081055	61571.414063
3415.820313	61587.707031
3414.559570	61596.023438
3413.297852	61711.789063
3412.036133	61718.074219
3410.774414	62171.898438
3409.512695	61527.761719
3408.250000	61555.929688
3406.987305	61659.617188
3405.724609	61391.613281
3404.460938	61676.082031
3403.197266	61592.921875
3401.933594	61918.917969
3400.669922	61722.546875
3399.405273	61440.894531
3398.140625	61248.671875
3396.875977	61580.378906
3395.610352	61257.265625
3394.344727	61989.457031
3393.079102	61672.328125
3391.813477	61823.210938
3390.546875	61502.281250
3389.280273	61046.738281
3388.013672	61128.292969
3386.746094	61348.460938
3385.478516	61465.546875
3384.210938	61198.476563
3382.943359	60996.839844
3381.674805	61632.406250
3380.406250	61881.863281
3379.136719	61207.410156
3377.868164	61569.566406
3376.598633	61619.148438
3375.329102	61579.742188
3374.058594	61277.488281
3372.789063	61250.019531
3371.517578	61183.042969
3370.247070	61011.414063
3368.975586	61467.781250
3367.705078	61473.828125
3366.432617	61081.167969
3365.161133	61233.308594
3363.888672	60923.722656
3362.616211	61367.734375
3361.343750	60870.906250
3360.070313	61160.937500
3358.796875	61212.328125
3357.523438	61374.046875
3356.249023	61553.417969
3354.974609	61256.015625
3353.700195	61423.503906
3352.425781	61012.054688
3351.150391	60915.734375
3349.875000	61132.367188
3348.599609	61673.542969
3347.323242	61280.082031
3346.046875	61057.894531
3344.770508	61030.457031
3343.494141	61242.851563
3342.216797	61659.546875
3340.939453	61152.527344
3339.661133	62009.085938
3338.383789	61254.734375
3337.105469	61835.968750
3335.827148	61317.558594
3334.547852	61001.539063
3333.268555	61784.531250
3331.989258	61703.953125
3330.709961	61315.464844
3329.429688	61701.722656
3328.149414	61525.132813
3326.869141	61278.050781
3325.587891	61252.515625
3324.306641	61085.917969
3323.025391	61424.750000
3321.744141	61285.593750
3320.461914	61481.292969
3319.179688	61700.382813
3317.896484	61657.128906
3316.614258	61523.890625
3315.331055	61967.753906
3314.047852	61967.476563
3312.763672	61982.832031
3311.479492	62457.550781
3310.195313	62281.246094
3308.911133	62228.113281
3307.625977	62018.718750
3306.340820	62090.652344
3305.054688	61988.761719
3303.769531	62128.976563
3302.483398	62083.710938
3301.197266	61862.843750
3299.910156	61889.824219
3298.623047	62269.804688
3297.335938	62491.660156
3296.048828	62434.632813
3294.760742	62408.804688
3293.472656	62375.191406
3292.184570	62481.851563
3290.895508	62333.304688
3289.606445	62338.656250
3288.317383	62170.726563
3287.028320	62076.828125
3285.738281	62574.542969
3284.448242	62684.863281
3283.157227	62736.773438
3281.867188	62442.507813
3280.576172	62904.664063
3279.284180	62692.117188
3277.993164	62944.113281
3276.701172	63197.929688
3275.409180	62787.312500
3274.116211	63062.398438
3272.823242	62626.742188
3271.530273	62833.789063
3270.237305	62986.390625
3268.943359	62981.761719
3267.649414	63384.480469
3266.355469	63007.394531
3265.060547	62874.773438
3263.765625	62953.496094
3262.470703	62349.996094
3261.174805	63025.566406
3259.879883	62916.277344
3258.583008	63171.132813
3257.287109	62674.597656
3255.990234	63064.886719
3254.693359	63511.113281
3253.396484	63245.074219
3252.098633	62894.035156
3250.800781	63339.976563
3249.502930	63603.945313
3248.205078	62957.269531
3246.906250	63375.808594
3245.607422	63289.828125
3244.307617	63447.289063
3243.007813	63515.828125
3241.708008	62976.078125
3240.408203	63276.339844
3239.107422	63495.394531
3237.806641	63397.882813
3236.505859	63273.398438
3235.204102	63457.566406
3233.902344	63113.285156
3232.600586	63495.960938
3231.298828	63346.484375
3229.996094	63214.414063
3228.693359	62976.437500
3227.389648	63526.332031
3226.086914	63296.082031
3224.783203	63437.496094
3223.478516	63236.226563
3222.173828	63210.160156
3220.870117	63355.320313
3219.564453	63621.585938
3218.259766	63199.289063
3216.954102	63248.203125
3215.648438	63264.414063
3214.341797	63472.777344
3213.035156	63692.562500
3211.728516	64014.042969
3210.421875	63553.789063
3209.114258	63692.750000
3207.806641	63253.878906
3206.499023	62446.753906
3205.190430	63600.781250
3203.881836	63451.851563
3202.573242	63642.417969
3201.263672	63529.964844
3199.954102	62970.937500
3198.644531	63542.820313
3197.333984	63198.617188
3196.024414	62680.257813
3194.713867	63251.789063
3193.402344	63124.222656
3192.090820	63469.503906
3190.779297	63334.273438
3189.467773	63132.136719
3188.155273	62954.953125
3186.842773	63148.847656
3185.530273	62793.917969
3184.216797	62873.058594
3182.903320	62751.488281
3181.589844	62826.765625
3180.276367	62611.652344
3178.961914	62555.140625
3177.646484	62977.878906
3176.332031	63039.644531
3175.016602	62698.699219
3173.701172	63054.312500
3172.385742	62774.550781
3171.069336	62397.648438
3169.752930	62957.070313
3168.436523	63274.140625
3167.119141	62910.707031
3165.801758	62930.398438
3164.484375	62982.460938
3163.166016	63004.015625
3161.847656	62640.953125
3160.529297	62915.738281
3159.209961	63258.898438
3157.890625	63031.097656
3156.571289	62691.164063
3155.251953	62564.378906
3153.931641	62728.550781
3152.611328	62731.062500
3151.290039	62526.417969
3149.968750	62508.062500
3148.647461	62744.250000
3147.326172	63098.062500
3146.003906	62994.128906
3144.681641	62594.109375
3143.359375	63004.625000
3142.036133	62456.781250
3140.712891	63049.226563
3139.389648	62571.785156
3138.065430	63078.593750
3136.742188	62692.343750
3135.416992	62416.179688
3134.092773	63132.960938
3132.767578	62502.585938
3131.442383	62584.574219
3130.116211	62352.214844
3128.790039	62390.648438
3127.463867	62430.945313
3126.137695	62650.964844
3124.810547	62447.152344
3123.483398	62559.253906
3122.156250	63117.503906
3120.828125	62647.179688
3119.500000	62655.195313
3118.170898	62897.480469
3116.842773	62584.300781
3115.513672	63007.773438
3114.183594	62723.019531
3112.854492	62572.414063
3111.524414	62784.207031
3110.194336	62729.867188
3108.863281	63418.742188
3107.532227	63064.414063
3106.201172	63351.281250
3104.869141	62782.238281
3103.537109	62995.531250
3102.205078	62724.507813
3100.873047	63146.781250
3099.540039	62828.753906
3098.207031	63295.976563
3096.873047	63497.566406
3095.539063	63078.042969
3094.205078	62961.617188
3092.871094	63087.886719
3091.536133	62781.566406
3090.201172	63189.816406
3088.866211	62753.906250
3087.530273	62947.726563
3086.194336	63406.355469
3084.857422	63509.761719
3083.521484	63325.792969
3082.184570	63646.937500
3080.846680	63087.613281
3079.509766	63461.187500
3078.171875	63399.324219
3076.833008	62665.996094
3075.495117	63714.468750
3074.156250	63622.574219
3072.817383	63228.945313
3071.477539	63453.882813
3070.137695	63508.218750
3068.797852	63444.527344
3067.457031	63877.089844
3066.116211	63820.812500
3064.775391	63566.156250
3063.434570	63762.585938
3062.092773	63519.277344
3060.750977	63672.589844
3059.408203	63724.851563
3058.065430	63506.003906
3056.722656	63741.429688
3055.378906	63847.804688
3054.036133	64131.597656
3052.691406	63869.875000
3051.347656	64041.476563
3050.002930	63738.820313
3048.658203	63943.953125
3047.313477	64074.343750
3045.967773	63977.074219
3044.622070	64002.941406
3043.275391	64086.589844
3041.929688	63877.515625
3040.582031	64031.964844
3039.235352	63931.058594
3037.887695	64020.207031
3036.540039	63861.605469
3035.192383	63926.507813
3033.843750	63961.585938
3032.495117	63832.867188
3031.146484	63830.726563
3029.796875	63739.292969
3028.447266	64133.285156
3027.097656	64082.710938
3025.747070	64162.277344
3024.396484	64141.441406
3023.044922	63942.242188
3021.694336	63503.511719
3020.342773	63648.105469
3018.990234	63694.226563
3017.638672	63563.972656
3016.286133	63907.000000
3014.932617	63231.281250
3013.580078	63459.207031
3012.226563	63483.027344
3010.872070	63744.140625
3009.518555	63608.464844
3008.164063	62957.675781
3006.808594	63244.648438
3005.454102	63420.339844
3004.098633	63427.429688
3002.743164	63575.207031
3001.386719	63484.144531
3000.030273	63559.660156
2998.673828	63461.230469
2997.316406	63492.312500
2995.958984	62890.964844
2994.601563	63147.695313
2993.243164	62872.000000
2991.884766	62836.644531
2990.526367	62921.375000
2989.166992	63231.386719
2987.807617	62972.523438
2986.448242	63053.449219
2985.087891	63029.132813
2983.727539	62988.214844
2982.367188	62827.398438
2981.005859	63129.570313
2979.644531	63330.179688
2978.283203	62791.480469
2976.921875	63093.425781
2975.559570	63140.949219
2974.196289	62967.394531
2972.833984	63366.660156
2971.470703	63196.804688
2970.106445	62767.480469
2968.743164	62756.101563
2967.378906	63162.371094
2966.013672	63165.601563
2964.649414	63323.304688
2963.284180	63078.281250
2961.917969	63360.902344
2960.552734	62880.757813
2959.186523	63271.671875
2957.819336	63006.664063
2956.453125	63098.027344
2955.085938	63141.605469
2953.717773	63172.308594
2952.350586	63182.804688
2950.982422	63734.484375
2949.613281	63671.460938
2948.245117	63437.933594
2946.875977	63428.160156
2945.505859	63696.972656
2944.136719	63751.265625
2942.766602	63712.093750
2941.395508	63922.015625
2940.025391	63763.792969
2938.654297	63999.218750
2937.282227	64232.691406
2935.910156	64125.718750
2934.538086	63819.402344
2933.166016	63891.789063
2931.792969	63779.472656
2930.419922	64133.328125
2929.046875	64463.246094
2927.672852	64091.410156
2926.298828	64284.167969
2924.923828	64146.289063
2923.549805	64017.601563
2922.173828	64432.906250
2920.798828	64769.531250
2919.422852	64044.183594
2918.046875	64411.734375
2916.670898	64062.453125
2915.293945	64382.410156
2913.916992	64450.679688
2912.539063	64617.308594
2911.161133	64629.000000
2909.783203	64321.945313
2908.404297	64648.703125
2907.026367	64414.593750
2905.646484	64169.675781
2904.267578	64478.015625
2902.887695	64520.605469
2901.507813	64723.214844
2900.126953	64865.714844
2898.746094	64524.605469
2897.365234	64674.339844
2895.983398	64858.519531
2894.601563	65111.625000
2893.219727	65219.320313
2891.836914	64898.476563
2890.454102	64681.242188
2889.071289	65082.929688
2887.687500	64905.656250
2886.303711	64735.718750
2884.919922	64694.609375
2883.535156	65327.929688
2882.150391	65429.871094
2880.765625	65297.996094
2879.379883	65111.832031
2877.994141	65027.179688
2876.608398	64891.855469
2875.221680	65169.343750
2873.834961	64572.523438
2872.447266	64810.132813
2871.059570	65114.554688
2869.671875	64626.675781
2868.284180	64864.078125
2866.895508	64835.628906
2865.506836	64769.238281
2864.117188	64795.015625
2862.727539	64524.535156
2861.337891	64230.703125
2859.947266	64572.531250
2858.556641	64619.968750
2857.166016	64521.203125
2855.775391	64626.347656
2854.383789	64493.343750
2852.991211	64297.281250
2851.599609	64503.343750
2850.207031	64566.906250
2848.813477	64394.375000
2847.419922	64257.953125
2846.026367	64409.761719
2844.632813	64109.535156
2843.238281	64084.875000
2841.843750	63941.433594
2840.449219	63709.890625
2839.053711	63476.656250
2837.658203	63320.863281
2836.261719	63740.496094
2834.865234	63406.742188
2833.468750	63351.695313
2832.072266	63267.925781
2830.674805	62916.550781
2829.276367	62902.949219
2827.878906	63609.281250
2826.480469	62904.464844
2825.082031	63657.093750
2823.682617	62974.125000
2822.283203	62876.195313
2820.882813	63321.628906
2819.483398	62732.445313
2818.083008	62756.500000
2816.681641	62825.332031
2815.281250	62736.484375
2813.878906	62819.601563
2812.477539	62850.746094
2811.075195	62636.628906
2809.672852	62909.394531
2808.269531	63106.871094
2806.866211	63114.636719
2805.462891	62732.535156
2804.059570	63332.164063
2802.655273	62717.816406
2801.250000	63174.183594
2799.845703	62812.070313
2798.440430	62893.085938
2797.034180	62879.414063
2795.628906	63051.410156
2794.222656	62916.328125
2792.815430	62444.058594
2791.408203	62801.542969
2790.000977	62839.601563
2788.593750	62626.222656
2787.185547	63051.117188
2785.777344	63055.203125
2784.368164	63135.898438
2782.958984	62799.718750
2781.549805	62985.492188
2780.140625	62945.054688
2778.730469	62749.769531
2777.319336	62769.902344
2775.909180	62907.437500
2774.497070	62954.187500
2773.085938	63239.191406
2771.673828	63180.933594
2770.261719	63335.976563
2768.849609	63419.863281
2767.436523	63139.527344
2766.023438	62907.269531
2764.609375	63435.082031
2763.195313	63085.695313
2761.781250	62734.699219
2760.367188	63111.328125
2758.952148	63264.257813
2757.536133	63103.214844
2756.121094	63296.835938
2754.705078	62878.835938
2753.288086	63462.265625
2751.871094	63235.753906
2750.454102	63609.789063
2749.037109	63530.316406
2747.619141	63454.414063
2746.201172	63343.144531
2744.782227	63169.996094
2743.363281	63587.777344
2741.944336	63692.308594
2740.524414	63772.023438
2739.104492	63588.304688
2737.684570	63703.343750
2736.263672	63654.000000
2734.842773	63369.742188
2733.421875	63248.085938
2732.000000	63601.410156
2730.578125	63938.671875
2729.155273	63675.773438
2727.733398	63245.398438
2726.309570	63469.593750
2724.886719	63367.453125
2723.462891	63461.039063
2722.038086	63459.398438
2720.614258	63669.195313
2719.189453	63572.363281
2717.763672	63186.742188
2716.338867	63752.097656
2714.912109	63454.625000
2713.486328	63306.882813
2712.059570	63739.812500
2710.632813	63345.800781
2709.205078	63701.117188
2707.777344	63915.597656
2706.349609	63409.328125
2704.920898	63593.894531
2703.492188	63506.058594
2702.063477	63298.828125
2700.633789	63485.015625
2699.204102	63523.648438
2697.774414	63506.089844
2696.343750	63476.253906
2694.912109	63241.191406
2693.481445	63116.718750
2692.049805	63371.015625
2690.618164	63013.433594
2689.185547	63267.617188
2687.752930	63488.378906
2686.319336	63537.375000
2684.886719	63686.148438
2683.453125	63013.781250
2682.018555	63404.132813
2680.583984	63477.570313
2679.149414	63092.628906
2677.713867	63459.917969
2676.278320	63655.660156
2674.842773	63499.941406
2673.406250	63340.796875
2671.969727	63580.082031
2670.533203	63145.000000
2669.095703	63623.449219
2667.658203	63246.171875
2666.219727	63069.800781
2664.781250	63233.789063
2663.342773	63479.683594
2661.903320	63334.765625
2660.463867	63217.808594
2659.024414	63236.878906
2657.583984	63167.050781
2656.143555	62828.921875
2654.703125	63058.835938
2653.261719	63234.636719
2651.820313	63218.828125
2650.377930	62952.363281
2648.935547	63035.808594
2647.493164	63383.656250
2646.049805	63119.070313
2644.606445	63372.808594
2643.162109	63228.300781
2641.718750	63228.117188
2640.273438	63552.855469
2638.829102	62970.628906
2637.383789	63076.429688
2635.938477	63176.960938
2634.492188	62675.093750
2633.045898	63443.804688
2631.598633	63200.621094
2630.152344	63439.761719
2628.705078	63177.617188
2627.256836	63524.117188
2625.808594	63506.457031
2624.360352	63537.316406
2622.911133	63353.339844
2621.461914	63079.386719
2620.012695	63918.929688
2618.562500	63539.363281
2617.112305	63757.054688
2615.661133	63566.296875
2614.210938	63591.855469
2612.758789	63217.914063
2611.307617	63340.351563
2609.855469	63747.917969
2608.402344	63604.027344
2606.950195	63527.582031
2605.496094	63508.164063
2604.042969	63659.699219
2602.588867	63384.750000
2601.134766	63377.445313
2599.679688	63656.558594
2598.224609	63600.878906
2596.769531	63350.339844
2595.313477	63548.199219
2593.857422	63327.089844
2592.401367	63118.148438
2590.944336	63271.101563
2589.486328	63101.882813
2588.029297	63361.511719
2586.571289	63197.507813
2585.112305	63288.304688
2583.654297	63181.167969
2582.195313	63122.250000
2580.735352	63113.226563
2579.275391	63209.082031
2577.815430	63150.179688
2576.354492	63024.281250
2574.893555	63219.714844
2573.432617	62959.875000
2571.970703	62681.269531
2570.508789	63082.636719
2569.045898	62807.558594
2567.583984	63035.371094
2566.120117	62530.558594
2564.657227	62864.648438
2563.193359	62629.316406
2561.728516	62730.070313
2560.263672	63195.796875
2558.798828	62844.031250
2557.333984	62761.359375
2555.868164	62807.156250
2554.402344	62659.468750
2552.935547	62772.007813
2551.468750	62776.683594
2550.000977	62543.558594
2548.534180	62835.601563
2547.065430	62823.136719
2545.597656	62415.800781
2544.128906	62599.968750
2542.659180	62486.753906
2541.190430	62453.867188
2539.720703	62726.667969
2538.250000	62604.949219
2536.779297	62698.343750
2535.308594	62827.523438
2533.836914	62349.304688
2532.365234	62048.699219
2530.893555	62235.898438
2529.420898	62252.527344
2527.948242	62425.933594
2526.475586	62117.070313
2525.001953	62479.480469
2523.527344	62201.402344
2522.053711	62609.562500
2520.579102	62188.605469
2519.103516	62793.941406
2517.627930	62214.921875
2516.152344	62175.339844
2514.675781	62455.433594
2513.199219	61967.019531
2511.722656	62146.742188
2510.245117	62180.250000
2508.767578	62317.351563
2507.290039	62237.007813
2505.811523	62292.519531
2504.333008	62390.429688
2502.853516	62265.992188
2501.374023	61936.339844
2499.893555	62010.503906
2498.414063	61596.289063
2496.932617	62660.468750
2495.452148	61737.863281
2493.970703	61800.117188
2492.488281	62023.253906
2491.006836	62046.441406
2489.524414	61773.332031
2488.041016	61749.167969
2486.557617	62171.738281
2485.074219	62030.742188
2483.589844	61717.300781
2482.105469	62026.253906
2480.621094	61963.144531
2479.135742	62275.242188
2477.650391	62234.054688
2476.164063	61942.886719
2474.677734	62035.199219
2473.191406	62051.488281
2471.704102	62142.027344
2470.216797	62048.582031
2468.728516	62442.726563
2467.240234	62271.656250
2465.751953	62001.191406
2464.262695	62266.910156
2462.773438	62249.359375
2461.283203	62241.925781
2459.793945	62175.531250
2458.302734	62267.457031
2456.812500	62251.585938
2455.321289	62266.011719
2453.829102	61782.343750
2452.336914	62054.257813
2450.844727	62147.753906
2449.351563	61987.296875
2447.858398	62099.242188
2446.365234	61896.855469
2444.871094	61771.851563
2443.376953	61870.304688
2441.882813	61728.570313
2440.387695	61647.335938
2438.891602	62031.062500
2437.395508	61948.101563
2435.899414	61850.082031
2434.403320	61760.492188
2432.906250	61468.058594
2431.409180	62084.312500
2429.911133	61934.382813
2428.413086	61234.984375
2426.914063	62212.605469
2425.416016	61853.417969
2423.916016	62276.230469
2422.416992	61641.035156
2420.916992	61389.343750
2419.416016	61918.992188
2417.915039	61230.843750
2416.414063	61397.425781
2414.912109	61396.765625
2413.410156	61656.792969
2411.908203	61614.285156
2410.405273	61550.078125
2408.902344	61581.078125
2407.398438	61291.527344
2405.894531	61230.773438
2404.390625	61138.339844
2402.885742	60949.195313
2401.380859	61435.570313
2399.875977	60911.308594
2398.370117	61340.757813
2396.863281	61173.398438
2395.356445	61419.285156
2393.849609	61351.914063
2392.342773	61098.070313
2390.834961	61318.800781
2389.327148	61730.808594
2387.818359	61327.292969
2386.309570	60920.656250
2384.799805	61325.777344
2383.290039	61236.894531
2381.780273	61556.945313
2380.269531	61404.886719
2378.758789	60825.945313
2377.248047	61004.660156
2375.736328	61264.640625
2374.223633	61074.609375
2372.711914	61108.722656
2371.199219	61107.964844
2369.685547	61161.941406
2368.171875	61530.968750
2366.658203	61170.320313
2365.143555	61081.675781
2363.628906	60688.175781
2362.114258	60617.914063
2360.598633	61104.167969
2359.083008	61042.105469
2357.566406	61427.011719
2356.049805	60664.847656
2354.532227	60930.515625
2353.014648	60987.628906
2351.497070	60895.878906
2349.978516	60827.316406
2348.459961	60958.769531
2346.941406	61055.449219
2345.421875	60963.753906
2343.902344	60957.976563
2342.381836	60663.253906
2340.861328	60872.132813
2339.340820	60901.023438
2337.819336	60543.832031
2336.296875	60947.195313
2334.775391	60682.503906
2333.252930	60530.050781
2331.729492	60591.921875
2330.206055	60869.609375
2328.682617	60666.136719
2327.158203	60950.238281
2325.633789	60504.812500
2324.109375	60652.175781
2322.583984	60314.011719
2321.057617	60494.238281
2319.532227	60365.160156
2318.005859	60398.925781
2316.478516	60409.656250
2314.951172	60323.410156
2313.423828	60777.761719
2311.895508	60369.500000
2310.367188	60450.816406
2308.838867	60453.281250
2307.309570	60355.617188
2305.779297	60815.910156
2304.250000	60573.828125
2302.718750	60359.746094
2301.188477	60267.101563
2299.657227	59838.457031
2298.125000	60096.687500
2296.593750	59404.519531
2295.061523	60095.136719
2293.528320	60063.242188
2291.995117	59795.613281
2290.461914	59868.546875
2288.927734	59555.277344
2287.393555	60009.378906
2285.858398	59807.433594
2284.323242	59868.820313
2282.788086	59720.945313
2281.251953	60267.660156
2279.715820	59634.527344
2278.178711	59753.039063
2276.641602	59540.007813
2275.103516	59305.859375
2273.566406	59520.640625
2272.027344	59634.140625
2270.489258	59639.921875
2268.950195	59283.660156
2267.410156	59455.808594
2265.870117	59595.265625
2264.330078	59120.320313
2262.789063	59487.855469
2261.248047	59584.835938
2259.706055	58940.906250
2258.165039	59497.011719
2256.622070	59644.343750
2255.079102	59220.527344
2253.536133	59312.539063
2251.993164	59116.675781
2250.449219	59076.976563
2248.904297	59347.722656
2247.359375	59572.828125
2245.814453	59074.925781
2244.269531	59293.476563
2242.723633	59104.382813
2241.176758	59304.945313
2239.629883	59472.945313
2238.083008	59290.421875
2236.535156	59117.718750
2234.987305	59275.890625
2233.439453	59745.222656
2231.890625	59544.968750
2230.340820	58918.691406
2228.791992	59523.796875
2227.242188	59503.496094
2225.691406	59198.257813
2224.140625	59189.367188
2222.589844	59636.796875
2221.038086	59315.566406
2219.486328	59303.402344
2217.933594	59904.039063
2216.380859	59435.875000
2214.828125	59460.843750
2213.274414	59372.695313
2211.719727	59308.820313
2210.166016	59438.746094
2208.611328	59617.027344
2207.055664	59464.355469
2205.500000	59550.554688
2203.944336	59354.414063
2202.387695	59882.464844
2200.831055	59392.890625
2199.273438	59282.355469
2197.715820	59096.132813
2196.158203	59591.457031
2194.599609	59579.183594
2193.041016	59756.914063
2191.481445	59169.906250
2189.921875	59339.593750
2188.362305	59063.511719
2186.801758	59479.226563
2185.240234	59378.523438
2183.679688	59546.347656
2182.117188	59444.058594
2180.555664	59491.257813
2178.993164	59358.503906
2177.430664	59624.101563
2175.867188	59114.062500
2174.302734	59326.605469
2172.739258	59463.609375
2171.174805	59366.304688
2169.609375	59636.339844
2168.043945	59524.597656
2166.478516	60052.535156
2164.912109	59445.511719
2163.345703	59099.964844
2161.779297	59480.214844
2160.211914	59338.207031
2158.643555	59681.363281
2157.075195	59564.972656
2155.506836	59373.429688
2153.937500	59426.742188
2152.368164	59140.964844
2150.798828	59023.218750
2149.228516	59386.667969
2147.657227	59291.277344
2146.086914	59406.820313
2144.515625	59188.480469
2142.943359	59581.824219
2141.371094	58801.609375
