#Wave		#Intensity
3550.240234	13431.666016
3549.007813	13600.785156
3547.776367	13656.959961
3546.543945	13652.007813
3545.311523	13498.410156
3544.078125	13487.383789
3542.844727	13592.377930
3541.611328	13652.556641
3540.377930	13629.292969
3539.143555	13673.162109
3537.909180	13597.026367
3536.674805	13606.315430
3535.440430	13522.091797
3534.205078	13478.549805
3532.969727	13670.726563
3531.734375	13588.569336
3530.499023	13740.016602
3529.262695	13726.917969
3528.026367	13620.435547
3526.790039	13479.491211
3525.552734	13454.276367
3524.315430	13548.773438
3523.078125	13533.693359
3521.840820	13650.438477
3520.602539	13657.643555
3519.364258	13672.952148
3518.125977	13700.413086
3516.886719	13756.227539
3515.648438	13641.847656
3514.409180	13618.658203
3513.168945	13686.599609
3511.929688	13792.976563
3510.689453	13844.655273
3509.449219	13726.324219
3508.208984	13846.781250
3506.967773	13965.161133
3505.726563	13820.586914
3504.485352	13589.131836
3503.243164	13869.202148
3502.001953	13884.397461
3500.758789	13885.440430
3499.516602	13759.211914
3498.274414	13810.771484
3497.031250	13892.595703
3495.788086	14022.834961
3494.543945	13941.084961
3493.300781	13950.176758
3492.056641	13914.876953
3490.811523	13881.608398
3489.567383	13832.219727
3488.322266	13944.147461
3487.077148	13943.142578
3485.832031	14087.240234
3484.585938	13884.709961
3483.339844	13980.408203
3482.093750	14017.655273
3480.847656	13944.137695
3479.600586	14080.018555
3478.353516	13958.210938
3477.106445	13943.105469
3475.858398	14109.071289
3474.610352	13955.148438
3473.362305	14219.574219
3472.114258	14103.891602
3470.865234	14048.561523
3469.616211	13975.166016
3468.367188	13960.068359
3467.117188	14157.907227
3465.868164	14050.389648
3464.617188	14201.937500
3463.367188	13881.662109
3462.117188	13966.945313
3460.866211	14266.895508
3459.614258	13984.927734
3458.363281	13927.721680
3457.111328	14109.167969
3455.859375	14061.980469
3454.607422	13994.768555
3453.354492	14168.060547
3452.102539	14066.791992
3450.848633	13947.537109
3449.595703	13968.519531
3448.341797	14053.561523
3447.087891	14056.492188
3445.833984	14111.455078
3444.580078	14088.356445
3443.325195	14267.314453
3442.070313	14338.189453
3440.814453	14157.084961
3439.559570	14169.974609
3438.303711	14160.872070
3437.046875	14143.778320
3435.791016	14230.578125
3434.534180	14127.585938
3433.277344	14120.491211
3432.020508	14269.125977
3430.762695	14044.426758
3429.504883	14187.023438
3428.247070	14303.618164
3426.988281	14262.573242
3425.730469	14233.510742
3424.471680	14200.471680
3423.211914	14281.072266
3421.953125	14277.928711
3420.693359	14450.131836
3419.432617	14213.870117
3418.172852	14178.872070
3416.912109	14179.730469
3415.651367	14319.944336
3414.390625	14346.642578
3413.128906	14164.383789
3411.867188	14272.671875
3410.605469	14170.069336
3409.343750	14051.601563
3408.081055	14322.868164
3406.818359	14214.354492
3405.554688	14334.426758
3404.291992	14116.677734
3403.028320	14077.801758
3401.764648	14179.946289
3400.500000	14325.725586
3399.236328	14425.782227
3397.971680	14178.475586
3396.706055	14117.793945
3395.441406	14229.727539
3394.175781	14414.994141
3392.909180	14096.517578
3391.643555	14208.376953
3390.376953	14125.945313
3389.110352	14322.954102
3387.843750	14379.211914
3386.576172	14027.416016
3385.308594	14428.278320
3384.041016	14193.434570
3382.773438	14103.189453
3381.504883	14254.415039
3380.236328	14201.785156
3378.966797	14176.870117
3377.698242	14353.682617
3376.428711	14261.516602
3375.158203	14258.344727
3373.888672	14233.432617
3372.618164	14358.696289
3371.347656	14213.268555
3370.077148	14054.078125
3368.805664	14278.021484
3367.534180	14243.253906
3366.262695	14184.816406
3364.990234	14065.233398
3363.717773	13975.292969
3362.445313	14161.522461
3361.172852	14040.046875
3359.899414	13995.512695
3358.625977	14134.302734
3357.352539	14062.174805
3356.078125	14194.974609
3354.803711	14311.955078
3353.529297	14133.491211
3352.254883	14240.585938
3350.979492	14066.150391
3349.704102	14151.562500
3348.428711	14596.988281
3347.152344	14461.927734
3345.875977	14378.057617
3344.599609	14368.939453
3343.322266	14178.973633
3342.044922	14380.189453
3340.767578	14282.652344
3339.490234	14159.620117
3338.211914	14236.968750
3336.933594	14298.572266
3335.655273	14287.510742
3334.375977	14323.557617
3333.097656	14092.723633
3331.817383	14346.552734
3330.538086	14309.987305
3329.257813	14340.107422
3327.977539	14281.991211
3326.697266	14321.901367
3325.416016	14293.206055
3324.134766	14256.685547
3322.853516	14372.958984
3321.572266	14361.890625
3320.290039	14223.568359
3319.007813	14208.621094
3317.724609	14360.018555
3316.442383	14302.000977
3315.159180	14326.163086
3313.875000	14342.490234
3312.591797	14603.204102
3311.307617	14625.322266
3310.023438	14528.216797
3308.738281	14411.614258
3307.454102	14287.250000
3306.167969	14407.061523
3304.882813	14327.658203
3303.596680	14494.252930
3302.310547	14621.738281
3301.024414	14460.385742
3299.738281	14593.669922
3298.451172	14629.375977
3297.164063	14370.631836
3295.875977	14152.941406
3294.587891	14461.578125
3293.299805	14680.439453
3292.011719	14569.968750
3290.722656	14627.046875
3289.433594	14664.624023
3288.144531	14495.823242
3286.855469	14574.284180
3285.565430	14664.382813
3284.275391	14419.818359
3282.984375	14517.688477
3281.694336	14613.567383
3280.402344	14864.932617
3279.111328	14550.565430
3277.819336	14382.083008
3276.528320	14777.093750
3275.235352	14835.892578
3273.943359	14770.377930
3272.650391	14520.450195
3271.357422	14709.312500
3270.063477	14564.301758
3268.770508	14615.312500
3267.476563	14635.262695
3266.181641	14775.438477
3264.887695	14836.055664
3263.592773	14557.422852
3262.296875	14807.978516
3261.001953	14636.040039
3259.706055	14797.355469
3258.410156	14751.375000
3257.113281	14802.224609
3255.816406	14715.610352
3254.519531	14870.948242
3253.222656	14627.628906
3251.924805	14833.208008
3250.626953	14793.075195
3249.329102	14509.331055
3248.030273	14855.908203
3246.732422	14867.974609
3245.432617	14746.709961
3244.133789	14977.083008
3242.833984	15012.284180
3241.534180	15072.569336
3240.234375	14798.856445
3238.933594	14868.809570
3237.632813	14685.955078
3236.331055	14748.182617
3235.030273	14810.378906
3233.728516	14733.711914
3232.426758	14990.588867
3231.124023	14900.420898
3229.821289	14723.581055
3228.518555	14689.380859
3227.215820	14711.048828
3225.912109	14890.604492
3224.608398	14914.138672
3223.303711	14835.650391
3222.000000	14980.412109
3220.695313	14844.226563
3219.389648	14861.972656
3218.084961	14918.167969
3216.779297	14812.846680
3215.473633	14838.271484
3214.166992	14902.114258
3212.860352	14873.710938
3211.553711	15068.123047
3210.246094	14934.075195
3208.939453	14857.682617
3207.631836	15023.168945
3206.323242	14799.027344
3205.015625	14943.343750
3203.707031	14955.244141
3202.397461	14656.481445
3201.088867	14934.928711
3199.779297	15050.322266
3198.468750	14929.956055
3197.159180	14880.530273
3195.848633	14861.771484
3194.538086	15038.348633
3193.226563	14921.917969
3191.916016	14884.017578
3190.603516	14840.392578
3189.291992	14923.057617
3187.979492	14802.928711
3186.666992	14942.930664
3185.354492	14939.474609
3184.041016	14886.321289
3182.727539	14867.588867
3181.414063	14827.847656
3180.099609	14702.166992
3178.785156	15029.136719
3177.470703	15081.023438
3176.156250	14953.458008
3174.840820	14879.384766
3173.525391	14688.960938
3172.208984	14664.573242
3170.893555	14979.645508
3169.576172	14863.682617
3168.259766	14852.609375
3166.942383	14858.691406
3165.625000	14819.042969
3164.307617	14840.364258
3162.989258	14795.022461
3161.670898	14873.454102
3160.352539	14816.701172
3159.033203	14874.154297
3157.714844	14777.469727
3156.394531	14810.174805
3155.075195	14896.111328
3153.754883	14964.893555
3152.434570	14967.114258
3151.113281	14655.768555
3149.791992	14844.250977
3148.470703	15053.539063
3147.149414	14844.934570
3145.827148	14888.941406
3144.504883	14893.065430
3143.182617	14813.684570
3141.859375	14777.977539
3140.536133	15013.534180
3139.212891	14966.415039
3137.888672	14854.853516
3136.564453	14771.775391
3135.240234	14919.933594
3133.915039	14933.501953
3132.589844	14916.755859
3131.264648	14918.953125
3129.939453	14854.881836
3128.613281	14855.196289
3127.287109	14683.298828
3125.959961	15010.961914
3124.632813	14712.372070
3123.305664	14896.149414
3121.978516	14752.755859
3120.650391	15023.383789
3119.322266	14592.780273
3117.993164	14912.438477
3116.665039	15160.167969
3115.335938	14935.669922
3114.005859	14905.738281
3112.676758	15070.237305
3111.346680	14968.575195
3110.015625	14783.946289
3108.685547	15040.778320
3107.354492	14795.870117
3106.022461	14888.551758
3104.691406	14869.978516
3103.359375	15037.973633
3102.027344	14774.449219
3100.694336	15027.145508
3099.361328	14805.172852
3098.028320	15095.394531
3096.695313	15089.964844
3095.361328	14730.756836
3094.027344	14872.159180
3092.692383	15045.467773
3091.357422	15072.016602
3090.022461	15122.992188
3088.687500	15098.757813
3087.351563	15179.765625
3086.015625	15008.987305
3084.678711	15172.619141
3083.342773	15112.710938
3082.005859	15146.698242
3080.667969	15103.712891
3079.331055	15032.599609
3077.993164	15030.931641
3076.654297	15209.322266
3075.315430	15155.105469
3073.976563	15157.154297
3072.637695	15013.006836
3071.298828	15187.478516
3069.958984	15159.539063
3068.618164	15157.833008
3067.278320	15216.045898
3065.937500	15002.779297
3064.595703	15128.376953
3063.254883	15298.822266
3061.913086	15083.811523
3060.571289	15040.969727
3059.228516	15138.384766
3057.885742	15099.285156
3056.542969	15234.016602
3055.200195	15237.885742
3053.856445	15221.203125
3052.511719	15144.760742
3051.167969	15467.935547
3049.823242	15221.592773
3048.478516	15283.307617
3047.132813	15216.246094
3045.788086	15290.988281
3044.441406	15272.443359
3043.095703	15043.211914
3041.749023	15183.180664
3040.402344	15252.261719
3039.055664	15209.514648
3037.708008	15276.691406
3036.360352	15343.833984
3035.011719	15267.577148
3033.663086	15278.842773
3032.314453	15280.796875
3030.965820	15390.661133
3029.616211	15232.613281
3028.266602	15413.101563
3026.916992	15111.958008
3025.566406	15136.246094
3024.215820	15305.473633
3022.865234	15285.111328
3021.513672	15181.170898
3020.162109	15307.549805
3018.809570	15237.069336
3017.458008	15070.099609
3016.105469	15124.038086
3014.751953	15061.066406
3013.399414	15385.782227
3012.045898	15356.154297
3010.691406	15358.055664
3009.336914	15287.668945
3007.982422	15332.202148
3006.627930	15219.241211
3005.272461	15113.741211
3003.916992	15128.652344
3002.561523	15108.379883
3001.205078	15130.685547
2999.848633	15204.790039
2998.492188	15236.307617
2997.134766	15245.615234
2995.777344	15168.009766
2994.419922	15247.573242
2993.061523	15232.839844
2991.703125	15210.720703
2990.344727	15306.837891
2988.985352	15016.912109
2987.625977	15393.684570
2986.266602	15072.491211
2984.906250	15142.706055
2983.545898	15371.564453
2982.185547	15259.048828
2980.824219	15209.289063
2979.462891	15262.803711
2978.101563	15202.003906
2976.739258	15275.762695
2975.376953	15144.971680
2974.014648	15075.029297
2972.651367	15347.650391
2971.288086	15176.426758
2969.924805	15110.203125
2968.560547	15200.429688
2967.196289	15193.102539
2965.832031	15261.191406
2964.466797	15399.124023
2963.101563	15272.248047
2961.736328	15248.362305
2960.370117	15380.681641
2959.003906	15310.848633
2957.637695	15255.740234
2956.270508	15373.267578
2954.903320	15086.853516
2953.535156	15376.887695
2952.167969	15110.791992
2950.799805	15468.554688
2949.430664	15288.762695
2948.062500	15376.764648
2946.692383	15442.723633
2945.323242	15244.735352
2943.953125	15448.114258
2942.583008	15360.127930
2941.212891	15435.177734
2939.841797	15319.769531
2938.470703	15607.131836
2937.099609	15288.593750
2935.727539	15610.585938
2934.355469	15557.432617
2932.982422	15524.419922
2931.609375	15555.412109
2930.236328	15674.127930
2928.863281	15469.325195
2927.489258	15447.321289
2926.115234	15516.654297
2924.740234	15790.477539
2923.366211	15605.920898
2921.990234	15494.461914
2920.615234	15753.488281
2919.239258	15578.191406
2917.863281	15678.388672
2916.486328	15483.132813
2915.109375	15647.108398
2913.732422	15552.193359
2912.355469	15619.495117
2910.977539	15551.956055
2909.599609	15726.675781
2908.220703	15699.198242
2906.841797	15739.086914
2905.462891	15555.100586
2904.083008	15762.395508
2902.703125	15720.375977
2901.323242	15600.174805
2899.942383	15785.485352
2898.561523	15625.333008
2897.180664	15688.785156
2895.798828	15617.756836
2894.416992	15755.649414
2893.035156	15933.424805
2891.652344	15911.403320
2890.269531	15566.302734
2888.886719	15773.025391
2887.502930	15819.994141
2886.119141	15767.180664
2884.735352	15861.271484
2883.350586	15619.928711
2881.965820	15650.569336
2880.581055	15644.954102
2879.195313	15700.933594
2877.809570	15816.651367
2876.422852	15590.089844
2875.036133	15751.031250
2873.649414	15653.089844
2872.262695	15645.662109
2870.875000	15614.720703
2869.487305	15690.494141
2868.098633	15639.665039
2866.709961	15719.006836
2865.321289	15487.475586
2863.931641	15731.225586
2862.541992	15521.475586
2861.152344	15725.366211
2859.761719	15754.031250
2858.371094	15576.913086
2856.980469	15585.747070
2855.588867	15614.419922
2854.197266	15552.894531
2852.805664	15552.707031
2851.413086	15813.919922
2850.020508	15754.188477
2848.627930	15660.248047
2847.234375	15735.689453
2845.840820	15542.740234
2844.447266	15574.956055
2843.052734	15477.543945
2841.658203	15686.126953
2840.262695	15563.542969
2838.867188	15392.449219
2837.471680	15358.114258
2836.075195	15313.006836
2834.679688	15379.364258
2833.282227	15341.458008
2831.885742	15558.689453
2830.488281	15301.621094
2829.089844	15396.642578
2827.692383	15527.520508
2826.293945	15349.618164
2824.894531	15196.922852
2823.496094	15182.437500
2822.096680	15178.717773
2820.696289	15381.206055
2819.296875	15420.460938
2817.895508	15341.408203
2816.495117	15190.721680
2815.093750	15199.536133
2813.692383	15278.190430
2812.290039	15238.633789
2810.888672	15243.845703
2809.485352	15417.274414
2808.083008	15286.461914
2806.679688	15187.908203
2805.276367	15246.769531
2803.872070	15362.809570
2802.467773	15037.306641
2801.063477	15128.322266
2799.658203	15367.571289
2798.252930	15356.650391
2796.847656	15372.518555
2795.441406	15350.887695
2794.035156	15234.674805
2792.627930	15284.458008
2791.220703	15146.908203
2789.813477	15360.761719
2788.406250	15171.550781
2786.998047	15271.206055
2785.589844	15285.268555
2784.180664	15190.640625
2782.771484	15446.962891
2781.362305	15359.460938
2779.952148	15337.874023
2778.541992	15148.983398
2777.131836	15515.385742
2775.720703	15338.994141
2774.309570	15274.740234
2772.897461	15210.517578
2771.486328	15336.541992
2770.074219	15439.398438
2768.661133	15233.028320
2767.248047	15394.477539
2765.834961	15321.416016
2764.420898	15470.332031
2763.006836	15386.634766
2761.592773	15416.554688
2760.177734	15302.746094
2758.762695	15394.751953
2757.347656	15339.522461
2755.931641	15449.200195
2754.515625	15376.256836
2753.099609	15512.448242
2751.682617	15476.725586
2750.265625	15356.002930
2748.847656	15550.528320
2747.430664	15369.653320
2746.011719	15482.662109
2744.593750	15356.743164
2743.174805	15393.629883
2741.754883	15402.201172
2740.335938	15431.982422
2738.916016	15520.081055
2737.495117	15442.015625
2736.075195	15448.791992
2734.653320	15471.461914
2733.232422	15366.972656
2731.810547	15550.305664
2730.388672	15571.163086
2728.965820	15509.072266
2727.542969	15508.755859
2726.120117	15614.262695
2724.697266	15430.535156
2723.273438	15562.448242
2721.848633	15770.077148
2720.423828	15396.150391
2718.999023	15302.491211
2717.574219	15258.188477
2716.148438	15249.119141
2714.722656	15553.374023
2713.295898	15373.533203
2711.870117	15383.790039
2710.442383	15694.815430
2709.015625	15434.178711
2707.587891	15572.745117
2706.159180	15422.994141
2704.731445	15540.405273
2703.301758	15201.006836
2701.873047	15276.260742
2700.443359	15620.122070
2699.013672	15521.444336
2697.583984	15243.805664
2696.153320	15283.876953
2694.721680	15397.599609
2693.291016	15726.965820
2691.859375	15351.364258
2690.426758	15358.059570
2688.995117	15513.701172
2687.562500	15550.131836
2686.128906	15159.178711
2684.695313	15297.238281
2683.261719	15359.950195
2681.828125	15378.875000
2680.393555	15350.545898
2678.958008	15411.443359
2677.523438	15433.833984
2676.087891	15480.690430
2674.651367	15676.102539
2673.215820	15389.085938
2671.778320	15287.407227
2670.341797	15411.101563
2668.904297	15353.122070
2667.466797	15293.422852
2666.028320	15378.620117
2664.589844	15386.995117
2663.151367	15369.196289
2661.711914	15424.657227
2660.272461	15309.209961
2658.833008	15476.219727
2657.392578	15386.957031
2655.952148	15438.866211
2654.510742	15441.974609
2653.069336	15570.465820
2651.627930	15366.354492
2650.185547	15313.774414
2648.743164	15400.432617
2647.300781	15267.840820
2645.857422	15316.199219
2644.414063	15317.583008
2642.970703	15431.961914
2641.526367	15212.588867
2640.082031	15422.499023
2638.636719	15548.921875
2637.191406	15539.817383
2635.746094	15416.124023
2634.299805	15379.282227
2632.853516	15432.696289
2631.406250	15383.720703
2629.959961	15525.563477
2628.511719	15407.222656
2627.064453	15361.752930
2625.616211	15389.098633
2624.167969	15438.955078
2622.718750	15570.205078
2621.269531	15396.573242
2619.819336	15352.886719
2618.370117	15568.874023
2616.918945	15641.113281
2615.468750	15452.059570
2614.017578	15420.504883
2612.566406	15712.341797
2611.114258	15661.716797
2609.662109	15514.324219
2608.209961	15589.914063
2606.756836	15408.059570
2605.303711	15288.470703
2603.849609	15595.431641
2602.395508	15506.924805
2600.941406	15454.704102
2599.486328	15376.626953
2598.031250	15360.685547
2596.576172	15311.984375
2595.120117	15333.994141
2593.664063	15574.894531
2592.207031	15427.948242
2590.750000	15536.046875
2589.292969	15557.971680
2587.834961	15512.728516
2586.376953	15560.467773
2584.918945	15365.512695
2583.459961	15303.142578
2582.000977	15399.057617
2580.541016	15420.974609
2579.081055	15315.649414
2577.621094	15413.204102
2576.161133	15338.863281
2574.699219	15589.262695
2573.238281	15518.346680
2571.776367	15402.819336
2570.314453	15326.833008
2568.851563	15129.027344
2567.389648	15408.326172
2565.925781	15452.470703
2564.462891	15427.991211
2562.998047	15292.077148
2561.534180	15461.343750
2560.069336	15299.781250
2558.604492	15390.147461
2557.138672	15511.296875
2555.672852	15418.334961
2554.207031	15311.723633
2552.740234	15241.105469
2551.273438	15382.697266
2549.806641	15300.120117
2548.338867	15126.941406
2546.871094	15365.908203
2545.402344	15379.117188
2543.933594	15212.879883
2542.464844	15478.975586
2540.995117	15241.055664
2539.525391	15520.666992
2538.054688	15264.075195
2536.583984	15125.377930
2535.113281	15182.978516
2533.641602	15366.785156
2532.169922	15228.163086
2530.698242	15251.588867
2529.225586	15348.298828
2527.752930	15197.852539
2526.279297	15028.740234
2524.805664	15028.339844
2523.332031	15114.785156
2521.857422	15119.467773
2520.382813	15200.736328
2518.908203	15253.036133
2517.432617	15208.341797
2515.956055	15117.749023
2514.480469	15096.913086
2513.003906	15149.180664
2511.526367	15288.089844
2510.049805	15297.803711
2508.571289	15011.959961
2507.093750	15089.662109
2505.615234	15162.229492
2504.135742	15058.242188
2502.657227	15101.930664
2501.177734	15181.221680
2499.697266	14963.672852
2498.216797	15192.163086
2496.736328	15293.402344
2495.254883	15094.627930
2493.773438	15077.239258
2492.291992	15251.260742
2490.809570	15377.776367
2489.327148	15548.244141
2487.843750	15342.879883
2486.360352	15303.445313
2484.876953	15292.787109
2483.392578	14999.694336
2481.908203	14955.299805
2480.423828	15235.481445
2478.938477	15211.326172
2477.453125	15236.177734
2475.966797	15136.022461
2474.480469	15051.113281
2472.993164	15184.030273
2471.506836	15041.764648
2470.018555	15250.544922
2468.531250	15277.026367
2467.042969	15139.900391
2465.553711	15120.869141
2464.065430	15154.102539
2462.576172	15291.800781
2461.085938	15228.936523
2459.595703	15085.251953
2458.105469	15364.310547
2456.614258	15328.407227
2455.123047	15337.963867
2453.630859	15263.381836
2452.139648	15267.900391
2450.646484	15220.279297
2449.154297	15038.171875
2447.661133	15041.059570
2446.166992	15188.467773
2444.672852	15219.874023
2443.178711	15084.976563
2441.683594	15304.463867
2440.188477	15129.319336
2438.693359	15194.269531
2437.197266	15178.644531
2435.701172	15369.359375
2434.205078	15182.631836
2432.708008	15239.113281
2431.209961	15143.028320
2429.712891	14830.812500
2428.213867	14956.025391
2426.715820	15143.146484
2425.216797	15068.946289
2423.717773	15023.242188
2422.217773	15159.988281
2420.717773	14998.829102
2419.216797	15115.434570
2417.715820	15101.534180
2416.214844	15032.465820
2414.713867	15100.495117
2413.210938	14972.970703
2411.708984	15274.870117
2410.206055	14916.871094
2408.703125	15130.127930
2407.199219	14864.162109
2405.695313	14918.770508
2404.191406	14908.276367
2402.686523	14971.182617
2401.181641	15139.118164
2399.675781	14918.498047
2398.169922	15016.352539
2396.664063	14889.192383
2395.157227	14975.338867
2393.650391	14924.866211
2392.142578	14897.729492
2390.634766	14960.497070
2389.126953	15174.679688
2387.618164	15069.294922
2386.109375	14953.982422
2384.599609	14881.965820
2383.089844	15007.827148
2381.580078	15013.950195
2380.069336	14993.481445
2378.558594	14767.023438
2377.047852	15004.056641
2375.536133	14860.730469
2374.023438	14921.655273
2372.511719	14899.569336
2370.998047	14704.943359
2369.485352	14808.983398
2367.971680	15024.074219
2366.458008	14967.164063
2364.943359	14769.399414
2363.428711	14913.079102
2361.913086	14902.621094
2360.397461	15026.315430
2358.881836	15075.437500
2357.365234	14861.338867
2355.848633	15118.990234
2354.332031	14888.442383
2352.814453	15079.790039
2351.295898	14955.199219
2349.778320	14696.763672
2348.258789	14833.467773
2346.740234	14999.841797
2345.220703	14692.032227
2343.701172	14746.053711
2342.180664	14729.050781
2340.660156	14741.766602
2339.138672	14719.819336
2337.617188	14730.878906
2336.095703	14743.579102
2334.573242	14749.676758
2333.050781	14805.224609
2331.528320	14712.416016
2330.004883	14669.082031
2328.480469	14785.551758
2326.957031	14748.806641
2325.431641	14730.188477
2323.907227	14713.225586
2322.381836	14732.470703
2320.856445	14557.582031
2319.330078	14718.297852
2317.803711	14740.811523
2316.276367	14686.051758
2314.749023	14711.846680
2313.221680	14749.126953
2311.693359	14671.407227
2310.165039	14707.034180
2308.635742	14634.288086
2307.106445	14550.088867
2305.577148	14685.808594
2304.046875	14780.445313
2302.516602	14661.829102
2300.985352	14721.989258
2299.454102	14667.374023
2297.922852	14553.790039
2296.390625	14695.843750
2294.858398	14601.963867
2293.325195	14509.768555
2291.791992	14566.591797
2290.258789	14469.540039
2288.724609	14588.518555
2287.190430	14574.933594
2285.655273	14481.221680
2284.120117	14752.151367
2282.583984	14401.818359
2281.048828	14501.043945
2279.511719	14608.385742
2277.975586	14410.250000
2276.438477	14527.354492
2274.900391	14397.901367
2273.362305	14301.153320
2271.824219	14463.875000
2270.285156	14458.501953
2268.746094	14555.866211
2267.206055	14464.063477
2265.666016	14639.607422
2264.125977	14277.336914
2262.584961	14588.045898
2261.043945	14426.293945
2259.502930	14538.161133
2257.960938	14526.257813
2256.417969	14465.539063
2254.875000	14403.223633
2253.332031	14485.697266
2251.789063	14553.493164
2250.245117	14476.568359
2248.700195	14484.194336
2247.155273	14368.328125
2245.610352	14530.293945
2244.064453	14356.009766
2242.518555	14383.136719
2240.972656	14575.808594
2239.425781	14487.648438
2237.877930	14238.924805
2236.331055	14475.270508
2234.783203	14414.765625
2233.234375	14364.016602
2231.685547	14535.317383
2230.136719	14341.984375
2228.586914	14343.123047
2227.037109	14528.866211
2225.486328	14398.818359
2223.935547	14320.629883
2222.384766	14394.582031
2220.833008	14360.109375
2219.281250	14291.691406
2217.728516	14252.410156
2216.175781	14302.051758
2214.622070	14299.954102
2213.068359	14213.845703
2211.514648	14391.051758
2209.959961	14353.403320
2208.405273	14328.688477
2206.850586	14371.769531
2205.294922	14347.059570
2203.738281	14262.678711
2202.181641	14536.345703
2200.625000	14442.283203
2199.068359	14278.960938
2197.510742	14331.647461
2195.952148	14342.419922
2194.393555	14641.472656
2192.834961	14223.863281
2191.275391	14487.375000
2189.715820	14369.347656
2188.155273	14174.154297
2186.595703	14376.348633
2185.034180	14375.824219
2183.472656	14248.297852
2181.911133	14350.665039
2180.349609	14372.638672
2178.787109	14291.792969
2177.223633	14565.900391
2175.660156	14615.090820
2174.096680	14354.468750
2172.532227	14424.546875
2170.967773	14308.492188
2169.403320	14258.253906
2167.837891	14394.039063
2166.271484	14423.953125
2164.705078	14300.000977
2163.138672	14430.858398
2161.572266	14520.000977
2160.003906	14109.474609
2158.436523	14283.500977
2156.868164	14142.134766
2155.299805	14335.259766
2153.730469	14216.346680
2152.161133	14295.801758
2150.590820	14359.226563
2149.020508	14214.820313
2147.450195	14291.013672
2145.878906	14496.572266
2144.307617	14424.112305
2142.735352	14372.447266
2141.163086	14215.448242
