#Wave		#Intensity
3550.405273	30393.285156
3549.173828	30271.027344
3547.941406	30362.353516
3546.708984	30368.093750
3545.476563	30447.134766
3544.243164	30294.048828
3543.010742	30214.300781
3541.777344	30130.511719
3540.542969	30547.265625
3539.309570	30585.484375
3538.075195	30172.197266
3536.840820	30501.232422
3535.605469	30155.218750
3534.371094	30396.716797
3533.135742	30652.330078
3531.900391	30495.429688
3530.664063	30608.728516
3529.428711	30711.822266
3528.192383	30701.175781
3526.955078	30384.031250
3525.718750	30438.390625
3524.481445	30770.687500
3523.244141	30281.300781
3522.006836	30593.199219
3520.768555	30819.802734
3519.530273	30792.906250
3518.291992	30763.992188
3517.053711	30755.349609
3515.814453	30629.207031
3514.575195	30665.150391
3513.335938	30697.023438
3512.095703	30716.732422
3510.855469	30523.896484
3509.615234	30774.328125
3508.375000	31067.136719
3507.133789	30734.765625
3505.892578	30620.949219
3504.651367	30824.626953
3503.410156	30739.134766
3502.167969	30655.699219
3500.925781	30938.031250
3499.683594	30814.175781
3498.440430	30858.011719
3497.197266	30419.205078
3495.954102	30689.216797
3494.710938	30682.580078
3493.466797	30799.041016
3492.222656	31119.224609
3490.978516	31086.265625
3489.734375	31012.982422
3488.489258	30986.101563
3487.244141	30894.722656
3485.999023	31061.351563
3484.752930	30822.896484
3483.506836	30737.644531
3482.260742	30914.259766
3481.014648	30645.775391
3479.767578	30904.867188
3478.520508	30777.390625
3477.273438	31344.222656
3476.025391	31389.722656
3474.777344	31115.375000
3473.529297	31295.634766
3472.281250	31234.542969
3471.032227	31434.794922
3469.784180	31492.265625
3468.534180	31796.849609
3467.285156	31205.353516
3466.035156	31174.455078
3464.785156	31314.246094
3463.535156	30859.742188
3462.284180	31005.552734
3461.033203	31018.859375
3459.782227	31262.869141
3458.531250	31466.654297
3457.279297	31431.712891
3456.027344	31703.531250
3454.775391	31301.728516
3453.522461	31300.902344
3452.270508	31486.406250
3451.016602	31363.341797
3449.763672	31350.476563
3448.509766	31505.802734
3447.255859	31594.998047
3446.001953	31690.154297
3444.748047	31467.113281
3443.493164	31582.255859
3442.238281	31777.345703
3440.983398	31190.486328
3439.727539	31943.347656
3438.471680	31206.794922
3437.215820	31631.589844
3435.958984	31508.773438
3434.703125	31729.568359
3433.446289	31552.857422
3432.188477	31813.470703
3430.931641	31860.378906
3429.673828	31757.585938
3428.416016	31608.943359
3427.157227	31552.125000
3425.898438	31742.630859
3424.639648	31574.138672
3423.380859	31607.062500
3422.121094	31875.150391
3420.862305	31591.156250
3419.601563	31568.263672
3418.341797	31481.638672
3417.081055	31874.957031
3415.820313	31642.962891
3414.559570	31817.115234
3413.297852	31455.878906
3412.036133	31409.148438
3410.774414	31800.042969
3409.512695	31546.425781
3408.250000	31519.580078
3406.987305	31780.970703
3405.724609	31342.693359
3404.460938	31909.986328
3403.197266	31408.298828
3401.933594	31319.925781
3400.669922	31489.718750
3399.405273	31157.183594
3398.140625	31606.775391
3396.875977	31520.408203
3395.610352	31596.750000
3394.344727	31431.078125
3393.079102	31420.148438
3391.813477	31433.011719
3390.546875	31753.087891
3389.280273	31319.992188
3388.013672	31574.564453
3386.746094	31387.308594
3385.478516	31913.052734
3384.210938	31312.000000
3382.943359	31722.710938
3381.674805	31723.580078
3380.406250	31639.367188
3379.136719	31630.357422
3377.868164	31609.482422
3376.598633	31525.339844
3375.329102	32056.019531
3374.058594	31926.351563
3372.789063	31510.228516
3371.517578	31376.781250
3370.247070	31567.298828
3368.975586	31564.216797
3367.705078	31582.847656
3366.432617	31579.755859
3365.161133	31641.781250
3363.888672	31762.958984
3362.616211	31706.564453
3361.343750	31849.359375
3360.070313	31430.199219
3358.796875	31537.505859
3357.523438	31579.728516
3356.249023	31905.640625
3354.974609	31967.453125
3353.700195	31343.908203
3352.425781	31586.949219
3351.150391	31932.238281
3349.875000	31476.388672
3348.599609	32057.648438
3347.323242	32127.191406
3346.046875	31911.531250
3344.770508	31609.445313
3343.494141	31956.210938
3342.216797	31776.097656
3340.939453	31814.169922
3339.661133	32203.863281
3338.383789	31601.535156
3337.105469	31745.644531
3335.827148	31675.699219
3334.547852	31631.298828
3333.268555	31736.048828
3331.989258	31899.601563
3330.709961	31890.474609
3329.429688	32144.117188
3328.149414	32038.867188
3326.869141	32094.386719
3325.587891	31861.810547
3324.306641	31880.113281
3323.025391	31655.519531
3321.744141	32069.433594
3320.461914	31983.898438
3319.179688	31835.761719
3317.896484	31930.353516
3316.614258	32032.726563
3315.331055	31957.044922
3314.047852	32092.605469
3312.763672	32363.011719
3311.479492	32279.474609
3310.195313	32108.027344
3308.911133	32155.490234
3307.625977	32171.673828
3306.340820	32512.048828
3305.054688	32450.033203
3303.769531	32622.300781
3302.483398	32573.943359
3301.197266	32369.501953
3299.910156	32344.626953
3298.623047	32462.136719
3297.335938	32597.138672
3296.048828	32548.822266
3294.760742	32763.648438
3293.472656	32432.759766
3292.184570	32312.421875
3290.895508	32517.406250
3289.606445	32434.093750
3288.317383	32461.785156
3287.028320	32345.427734
3285.738281	32575.501953
3284.448242	32807.414063
3283.157227	32778.574219
3281.867188	32775.023438
3280.576172	32825.910156
3279.284180	32725.156250
3277.993164	32886.792969
3276.701172	32760.806641
3275.409180	32864.082031
3274.116211	32959.535156
3272.823242	33146.199219
3271.530273	33020.253906
3270.237305	33206.808594
3268.943359	33001.347656
3267.649414	33100.527344
3266.355469	32895.175781
3265.060547	32717.062500
3263.765625	33279.519531
3262.470703	32981.234375
3261.174805	33126.785156
3259.879883	33250.960938
3258.583008	32873.468750
3257.287109	32974.402344
3255.990234	32842.988281
3254.693359	33387.074219
3253.396484	33511.027344
3252.098633	33366.027344
3250.800781	33263.640625
3249.502930	33404.929688
3248.205078	33416.628906
3246.906250	33051.437500
3245.607422	33215.855469
3244.307617	33384.058594
3243.007813	33432.433594
3241.708008	33420.921875
3240.408203	33339.914063
3239.107422	33245.429688
3237.806641	33191.507813
3236.505859	33297.726563
3235.204102	33407.753906
3233.902344	33290.187500
3232.600586	33579.445313
3231.298828	33504.289063
3229.996094	33419.527344
3228.693359	33485.070313
3227.389648	33136.468750
3226.086914	33369.570313
3224.783203	33510.152344
3223.478516	33564.050781
3222.173828	33723.757813
3220.870117	33773.730469
3219.564453	33727.500000
3218.259766	33590.906250
3216.954102	33756.214844
3215.648438	33879.156250
3214.341797	33414.007813
3213.035156	33469.718750
3211.728516	33602.234375
3210.421875	33596.421875
3209.114258	33492.691406
3207.806641	33302.628906
3206.499023	33603.917969
3205.190430	33697.859375
3203.881836	33469.507813
3202.573242	33709.175781
3201.263672	33528.851563
3199.954102	33572.871094
3198.644531	33772.093750
3197.333984	33528.644531
3196.024414	33204.851563
3194.713867	33660.621094
3193.402344	33582.011719
3192.090820	33507.257813
3190.779297	33798.054688
3189.467773	33562.566406
3188.155273	33457.253906
3186.842773	33761.234375
3185.530273	33885.351563
3184.216797	33707.390625
3182.903320	33913.628906
3181.589844	33506.460938
3180.276367	33670.621094
3178.961914	33945.464844
3177.646484	33735.218750
3176.332031	33815.210938
3175.016602	33727.222656
3173.701172	33582.031250
3172.385742	33425.457031
3171.069336	33568.367188
3169.752930	33566.300781
3168.436523	33486.078125
3167.119141	33535.480469
3165.801758	33476.250000
3164.484375	33897.074219
3163.166016	33828.261719
3161.847656	33989.855469
3160.529297	33599.347656
3159.209961	33768.527344
3157.890625	33513.332031
3156.571289	33467.496094
3155.251953	33579.527344
3153.931641	33550.800781
3152.611328	33742.585938
3151.290039	33622.605469
3149.968750	33584.378906
3148.647461	33749.417969
3147.326172	33602.925781
3146.003906	33500.164063
3144.681641	33598.656250
3143.359375	33805.277344
3142.036133	33674.066406
3140.712891	33857.804688
3139.389648	33851.804688
3138.065430	33424.886719
3136.742188	33951.636719
3135.416992	33708.718750
3134.092773	33450.750000
3132.767578	33818.000000
3131.442383	33632.082031
3130.116211	34046.445313
3128.790039	33877.589844
3127.463867	33882.921875
3126.137695	33827.699219
3124.810547	33846.269531
3123.483398	33895.089844
3122.156250	33675.398438
3120.828125	33775.265625
3119.500000	33687.984375
3118.170898	33836.917969
3116.842773	33955.554688
3115.513672	33569.902344
3114.183594	34062.371094
3112.854492	33961.894531
3111.524414	34093.585938
3110.194336	33598.816406
3108.863281	34137.960938
3107.532227	33913.082031
3106.201172	33865.531250
3104.869141	34038.542969
3103.537109	34075.781250
3102.205078	34237.347656
3100.873047	34020.222656
3099.540039	34061.195313
3098.207031	34056.960938
3096.873047	34225.894531
3095.539063	34251.722656
3094.205078	33901.253906
3092.871094	34275.117188
3091.536133	34193.714844
3090.201172	34368.039063
3088.866211	34072.367188
3087.530273	34389.449219
3086.194336	34666.925781
3084.857422	34609.925781
3083.521484	34398.964844
3082.184570	34428.410156
3080.846680	34420.296875
3079.509766	34684.285156
3078.171875	34405.949219
3076.833008	34544.136719
3075.495117	34410.351563
3074.156250	34912.175781
3072.817383	34617.164063
3071.477539	34792.636719
3070.137695	34600.824219
3068.797852	34789.320313
3067.457031	35108.804688
3066.116211	34690.515625
3064.775391	34837.667969
3063.434570	34692.835938
3062.092773	34751.984375
3060.750977	35071.078125
3059.408203	34844.003906
3058.065430	34714.250000
3056.722656	35059.281250
3055.378906	35127.597656
3054.036133	35143.570313
3052.691406	34920.464844
3051.347656	35042.902344
3050.002930	35002.867188
3048.658203	35102.824219
3047.313477	34984.417969
3045.967773	34929.488281
3044.622070	35240.128906
3043.275391	35183.296875
3041.929688	35025.816406
3040.582031	35181.515625
3039.235352	35189.937500
3037.887695	35135.015625
3036.540039	35000.035156
3035.192383	35403.214844
3033.843750	35338.960938
3032.495117	35447.816406
3031.146484	35229.144531
3029.796875	35215.191406
3028.447266	35350.023438
3027.097656	35027.394531
3025.747070	35297.894531
3024.396484	35475.343750
3023.044922	35199.355469
3021.694336	34962.503906
3020.342773	34978.324219
3018.990234	35181.656250
3017.638672	35303.214844
3016.286133	35103.660156
3014.932617	34958.007813
3013.580078	35064.679688
3012.226563	35052.613281
3010.872070	35389.105469
3009.518555	35210.140625
3008.164063	35236.953125
3006.808594	34926.562500
3005.454102	35194.214844
3004.098633	35433.957031
3002.743164	35399.578125
3001.386719	35154.214844
3000.030273	35330.867188
2998.673828	35470.429688
2997.316406	34894.136719
2995.958984	35314.800781
2994.601563	35075.273438
2993.243164	34981.871094
2991.884766	34966.117188
2990.526367	34867.234375
2989.166992	35200.578125
2987.807617	34891.179688
2986.448242	35257.578125
2985.087891	35046.125000
2983.727539	35545.156250
2982.367188	35143.718750
2981.005859	35413.789063
2979.644531	35276.238281
2978.283203	35369.175781
2976.921875	35104.527344
2975.559570	35184.554688
2974.196289	35489.273438
2972.833984	35169.527344
2971.470703	35302.867188
2970.106445	35426.929688
2968.743164	35223.359375
2967.378906	35489.046875
2966.013672	35261.636719
2964.649414	35308.339844
2963.284180	35377.082031
2961.917969	35534.011719
2960.552734	35545.691406
2959.186523	35474.687500
2957.819336	35548.816406
2956.453125	35274.003906
2955.085938	35825.468750
2953.717773	35631.472656
2952.350586	35595.378906
2950.982422	35482.246094
2949.613281	35825.859375
2948.245117	35782.398438
2946.875977	35700.453125
2945.505859	35898.964844
2944.136719	35963.613281
2942.766602	36183.941406
2941.395508	35933.468750
2940.025391	36254.398438
2938.654297	36099.210938
2937.282227	36344.902344
2935.910156	35939.089844
2934.538086	36464.570313
2933.166016	36256.433594
2931.792969	36324.476563
2930.419922	36299.261719
2929.046875	36239.332031
2927.672852	36407.808594
2926.298828	36696.757813
2924.923828	36267.875000
2923.549805	36658.949219
2922.173828	36765.085938
2920.798828	36413.128906
2919.422852	36404.332031
2918.046875	36753.027344
2916.670898	36399.496094
2915.293945	36554.769531
2913.916992	36717.257813
2912.539063	36892.417969
2911.161133	36805.156250
2909.783203	36737.964844
2908.404297	36643.488281
2907.026367	37098.832031
2905.646484	36483.785156
2904.267578	37159.105469
2902.887695	37191.941406
2901.507813	36977.417969
2900.126953	36937.546875
2898.746094	37126.734375
2897.365234	37186.792969
2895.983398	37056.042969
2894.601563	37203.269531
2893.219727	37461.203125
2891.836914	36952.824219
2890.454102	37350.449219
2889.071289	37192.578125
2887.687500	37118.234375
2886.303711	37147.312500
2884.919922	37107.460938
2883.535156	37161.902344
2882.150391	37642.250000
2880.765625	37439.210938
2879.379883	37283.367188
2877.994141	37189.179688
2876.608398	37189.187500
2875.221680	37484.277344
2873.834961	37321.320313
2872.447266	37525.750000
2871.059570	37297.730469
2869.671875	37214.503906
2868.284180	37154.816406
2866.895508	37062.617188
2865.506836	37111.421875
2864.117188	37237.894531
2862.727539	37250.496094
2861.337891	37248.644531
2859.947266	37210.679688
2858.556641	37333.375000
2857.166016	37289.984375
2855.775391	37203.312500
2854.383789	37646.968750
2852.991211	37095.003906
2851.599609	37376.207031
2850.207031	37276.964844
2848.813477	37249.847656
2847.419922	36936.300781
2846.026367	37114.589844
2844.632813	36914.660156
2843.238281	36905.644531
2841.843750	37073.000000
2840.449219	37085.535156
2839.053711	36617.757813
2837.658203	36624.992188
2836.261719	36612.441406
2834.865234	36641.238281
2833.468750	36871.292969
2832.072266	36858.679688
2830.674805	36635.906250
2829.276367	36729.300781
2827.878906	36716.722656
2826.480469	36266.183594
2825.082031	36594.664063
2823.682617	36540.851563
2822.283203	36635.929688
2820.882813	36686.128906
2819.483398	36582.125000
2818.083008	36576.742188
2816.681641	36284.667969
2815.281250	36440.578125
2813.878906	36385.078125
2812.477539	36365.410156
2811.075195	36678.703125
2809.672852	36619.593750
2808.269531	36639.234375
2806.866211	36773.343750
2805.462891	36492.492188
2804.059570	36816.078125
2802.655273	36515.683594
2801.250000	36413.789063
2799.845703	36671.042969
2798.440430	36486.992188
2797.034180	36515.523438
2795.628906	36531.542969
2794.222656	36693.902344
2792.815430	36617.074219
2791.408203	36470.707031
2790.000977	36987.867188
2788.593750	36593.625000
2787.185547	36809.230469
2785.777344	36805.519531
2784.368164	36992.449219
2782.958984	36928.121094
2781.549805	36990.265625
2780.140625	36637.531250
2778.730469	37032.562500
2777.319336	37279.695313
2775.909180	37071.250000
2774.497070	36928.710938
2773.085938	37093.875000
2771.673828	37106.062500
2770.261719	37260.429688
2768.849609	37205.042969
2767.436523	37192.312500
2766.023438	37371.394531
2764.609375	37113.589844
2763.195313	37012.121094
2761.781250	37068.648438
2760.367188	37359.351563
2758.952148	37410.437500
2757.536133	37601.593750
2756.121094	37555.070313
2754.705078	37265.734375
2753.288086	37382.343750
2751.871094	37321.726563
2750.454102	37491.394531
2749.037109	37441.398438
2747.619141	37621.566406
2746.201172	37380.402344
2744.782227	37638.347656
2743.363281	37706.871094
2741.944336	37824.878906
2740.524414	37663.457031
2739.104492	37434.937500
2737.684570	37936.414063
2736.263672	37601.921875
2734.842773	37495.457031
2733.421875	37818.167969
2732.000000	38057.738281
2730.578125	38030.660156
2729.155273	37894.179688
2727.733398	38184.703125
2726.309570	37776.621094
2724.886719	37825.445313
2723.462891	38029.375000
2722.038086	37912.433594
2720.614258	38146.187500
2719.189453	37927.093750
2717.763672	37910.636719
2716.338867	37915.312500
2714.912109	37985.113281
2713.486328	37820.816406
2712.059570	38099.968750
2710.632813	37923.402344
2709.205078	37935.082031
2707.777344	37911.593750
2706.349609	37912.718750
2704.920898	37864.636719
2703.492188	37992.253906
2702.063477	37763.265625
2700.633789	38154.222656
2699.204102	38297.460938
2697.774414	38066.800781
2696.343750	38231.035156
2694.912109	37811.046875
2693.481445	37784.097656
2692.049805	38190.226563
2690.618164	37877.472656
2689.185547	38141.421875
2687.752930	38081.113281
2686.319336	37973.542969
2684.886719	38217.992188
2683.453125	38157.703125
2682.018555	38494.742188
2680.583984	38138.687500
2679.149414	38426.570313
2677.713867	38082.945313
2676.278320	38139.890625
2674.842773	38291.203125
2673.406250	38066.691406
2671.969727	38226.671875
2670.533203	38243.335938
2669.095703	38218.074219
2667.658203	38458.195313
2666.219727	38043.652344
2664.781250	38304.632813
2663.342773	38145.031250
2661.903320	38315.152344
2660.463867	38612.472656
2659.024414	38207.105469
2657.583984	38206.273438
2656.143555	38130.511719
2654.703125	38201.113281
2653.261719	38282.121094
2651.820313	38606.835938
2650.377930	38388.304688
2648.935547	38516.179688
2647.493164	38363.882813
2646.049805	38154.261719
2644.606445	38753.332031
2643.162109	38187.320313
2641.718750	38535.796875
2640.273438	38458.382813
2638.829102	38422.695313
2637.383789	38626.691406
2635.938477	38516.312500
2634.492188	38539.644531
2633.045898	38639.320313
2631.598633	38490.839844
2630.152344	38521.085938
2628.705078	38674.441406
2627.256836	38734.089844
2625.808594	38847.441406
2624.360352	38926.070313
2622.911133	38905.914063
2621.461914	38833.804688
2620.012695	38756.531250
2618.562500	38625.632813
2617.112305	39064.175781
2615.661133	39021.496094
2614.210938	39082.621094
2612.758789	39221.531250
2611.307617	39033.601563
2609.855469	38951.203125
2608.402344	39052.011719
2606.950195	39204.597656
2605.496094	39208.562500
2604.042969	38960.417969
2602.588867	38917.828125
2601.134766	39399.914063
2599.679688	39012.136719
2598.224609	38771.179688
2596.769531	38866.625000
2595.313477	38943.054688
2593.857422	39214.222656
2592.401367	38821.789063
2590.944336	39177.257813
2589.486328	39318.968750
2588.029297	39066.273438
2586.571289	39052.996094
2585.112305	38864.167969
2583.654297	38959.339844
2582.195313	38903.082031
2580.735352	39013.667969
2579.275391	39433.679688
2577.815430	38731.011719
2576.354492	39109.628906
2574.893555	39458.847656
2573.432617	38895.820313
2571.970703	39128.140625
2570.508789	39291.667969
2569.045898	39472.269531
2567.583984	39059.074219
2566.120117	39152.148438
2564.657227	39274.328125
2563.193359	39041.515625
2561.728516	39377.925781
2560.263672	39251.449219
2558.798828	39303.218750
2557.333984	39620.453125
2555.868164	39291.933594
2554.402344	39323.097656
2552.935547	39420.992188
2551.468750	39103.027344
2550.000977	39002.476563
2548.534180	39006.300781
2547.065430	39422.195313
2545.597656	39239.578125
2544.128906	38997.234375
2542.659180	39091.593750
2541.190430	39365.253906
2539.720703	39392.867188
2538.250000	39456.312500
2536.779297	39364.402344
2535.308594	39383.449219
2533.836914	39059.585938
2532.365234	39153.734375
2530.893555	39165.988281
2529.420898	39575.417969
2527.948242	39422.242188
2526.475586	39296.398438
2525.001953	39281.332031
2523.527344	39324.171875
2522.053711	39195.035156
2520.579102	39312.757813
2519.103516	39297.687500
2517.627930	39056.363281
2516.152344	39376.410156
2514.675781	39427.640625
2513.199219	39324.144531
2511.722656	39533.406250
2510.245117	39277.011719
2508.767578	39280.636719
2507.290039	39328.410156
2505.811523	39201.285156
2504.333008	39571.535156
2502.853516	39597.125000
2501.374023	39660.019531
2499.893555	39349.753906
2498.414063	39451.671875
2496.932617	39521.324219
2495.452148	39494.335938
2493.970703	39485.996094
2492.488281	39655.515625
2491.006836	39528.589844
2489.524414	39415.269531
2488.041016	39532.195313
2486.557617	39867.347656
2485.074219	39532.398438
2483.589844	39337.992188
2482.105469	39772.687500
2480.621094	39938.378906
2479.135742	39787.945313
2477.650391	39782.890625
2476.164063	40019.382813
2474.677734	39767.710938
2473.191406	39757.589844
2471.704102	39747.468750
2470.216797	39865.593750
2468.728516	39863.878906
2467.240234	40314.160156
2465.751953	40254.996094
2464.262695	39870.511719
2462.773438	39929.449219
2461.283203	40072.597656
2459.793945	39942.792969
2458.302734	39986.500000
2456.812500	40055.433594
2455.321289	40159.675781
2453.829102	39824.675781
2452.336914	40041.625000
2450.844727	39992.730469
2449.351563	40236.425781
2447.858398	40258.097656
2446.365234	40044.480469
2444.871094	39906.570313
2443.376953	39819.121094
2441.882813	39844.222656
2440.387695	39854.195313
2438.891602	39929.621094
2437.395508	40182.871094
2435.899414	40382.304688
2434.403320	40309.937500
2432.906250	40299.640625
2431.409180	40116.687500
2429.911133	40170.121094
2428.413086	40072.734375
2426.914063	40129.492188
2425.416016	40085.746094
2423.916016	40050.386719
2422.416992	40252.707031
2420.916992	39917.796875
2419.416016	40064.835938
2417.915039	40027.832031
2416.414063	40111.226563
2414.912109	40401.847656
2413.410156	40089.031250
2411.908203	40280.929688
2410.405273	40334.093750
2408.902344	40180.160156
2407.398438	40058.023438
2405.894531	39970.992188
2404.390625	40015.820313
2402.885742	40145.699219
2401.380859	40403.917969
2399.875977	40248.515625
2398.370117	40416.558594
2396.863281	40124.574219
2395.356445	40232.582031
2393.849609	40343.859375
2392.342773	40075.417969
2390.834961	40138.394531
2389.327148	40356.113281
2387.818359	40666.894531
2386.309570	40298.824219
2384.799805	40177.066406
2383.290039	40033.753906
2381.780273	40030.132813
2380.269531	40342.242188
2378.758789	40243.839844
2377.248047	40275.035156
2375.736328	40206.582031
2374.223633	40440.285156
2372.711914	40054.832031
2371.199219	40557.238281
2369.685547	40468.863281
2368.171875	40486.660156
2366.658203	40598.949219
2365.143555	40571.945313
2363.628906	40375.929688
2362.114258	40297.636719
2360.598633	40265.750000
2359.083008	40599.804688
2357.566406	40387.414063
2356.049805	40049.355469
2354.532227	40446.070313
2353.014648	40639.121094
2351.497070	40383.929688
2349.978516	40859.593750
2348.459961	40363.160156
2346.941406	40549.410156
2345.421875	40411.777344
2343.902344	40634.246094
2342.381836	40361.265625
2340.861328	40621.589844
2339.340820	40467.562500
2337.819336	40325.160156
2336.296875	40535.796875
2334.775391	40548.445313
2333.252930	40790.234375
2331.729492	40372.640625
2330.206055	40757.691406
2328.682617	40701.066406
2327.158203	40912.910156
2325.633789	40438.074219
2324.109375	40807.878906
2322.583984	40660.781250
2321.057617	40826.332031
2319.532227	40565.808594
2318.005859	40576.726563
2316.478516	40352.558594
2314.951172	40284.632813
2313.423828	40795.085938
2311.895508	40585.808594
2310.367188	40439.039063
2308.838867	40528.753906
2307.309570	40858.054688
2305.779297	40831.101563
2304.250000	40626.988281
2302.718750	40867.433594
2301.188477	40569.945313
2299.657227	40798.796875
2298.125000	40588.332031
2296.593750	40877.675781
2295.061523	40965.394531
2293.528320	40514.320313
2291.995117	40831.277344
2290.461914	40526.125000
2288.927734	40399.480469
2287.393555	40421.757813
2285.858398	40468.550781
2284.323242	40665.738281
2282.788086	40683.015625
2281.251953	40775.449219
2279.715820	40485.539063
2278.178711	40533.871094
2276.641602	40539.718750
2275.103516	40612.492188
2273.566406	40921.867188
2272.027344	40545.800781
2270.489258	40892.542969
2268.950195	40678.117188
2267.410156	40687.156250
2265.870117	40709.226563
2264.330078	40653.062500
2262.789063	40952.066406
2261.248047	40702.050781
2259.706055	40671.976563
2258.165039	40770.511719
2256.622070	40927.574219
2255.079102	41016.222656
2253.536133	40732.335938
2251.993164	40713.656250
2250.449219	40750.253906
2248.904297	40611.296875
2247.359375	40825.007813
2245.814453	40762.445313
2244.269531	40644.695313
2242.723633	40462.058594
2241.176758	40823.281250
2239.629883	40991.203125
2238.083008	40889.722656
2236.535156	41247.296875
2234.987305	40865.273438
2233.439453	41319.929688
2231.890625	41231.417969
2230.340820	41037.636719
2228.791992	40887.683594
2227.242188	40820.394531
2225.691406	41112.554688
2224.140625	41148.824219
2222.589844	40702.863281
2221.038086	40850.832031
2219.486328	40953.441406
2217.933594	40852.261719
2216.380859	41258.703125
2214.828125	41139.714844
2213.274414	41103.179688
2211.719727	41467.234375
2210.166016	41220.703125
2208.611328	41363.359375
2207.055664	41407.488281
2205.500000	41435.453125
2203.944336	41248.855469
2202.387695	41176.855469
2200.831055	41751.406250
2199.273438	41527.789063
2197.715820	41342.960938
2196.158203	41581.917969
2194.599609	41263.480469
2193.041016	41647.246094
2191.481445	41641.242188
2189.921875	41512.929688
2188.362305	41555.226563
2186.801758	41455.949219
2185.240234	41824.671875
2183.679688	41770.382813
2182.117188	41788.441406
2180.555664	41600.816406
2178.993164	41668.703125
2177.430664	42014.386719
2175.867188	41947.253906
2174.302734	41970.042969
2172.739258	41886.902344
2171.174805	41702.726563
2169.609375	41852.257813
2168.043945	41676.199219
2166.478516	41840.078125
2164.912109	41622.437500
2163.345703	41783.031250
2161.779297	41989.992188
2160.211914	41935.812500
2158.643555	42125.007813
2157.075195	42038.800781
2155.506836	41936.636719
2153.937500	42079.277344
2152.368164	41890.785156
2150.798828	42309.964844
2149.228516	41940.875000
2147.657227	42335.843750
2146.086914	42216.164063
2144.515625	42182.792969
2142.943359	42222.886719
2141.371094	41897.382813
