#Wave		#Intensity
3550.258789	39596.253906
3549.027344	40115.835938
3547.794922	39987.082031
3546.562500	40021.320313
3545.330078	39980.195313
3544.096680	39688.675781
3542.863281	39739.222656
3541.629883	39901.667969
3540.396484	39968.414063
3539.162109	40002.582031
3537.928711	39981.824219
3536.693359	40091.195313
3535.458984	39818.351563
3534.223633	39500.906250
3532.989258	39628.585938
3531.752930	39705.417969
3530.517578	39851.265625
3529.281250	39995.019531
3528.044922	39801.695313
3526.808594	39787.066406
3525.571289	39867.820313
3524.333984	40100.699219
3523.096680	39826.359375
3521.859375	39623.117188
3520.621094	39659.210938
3519.382813	40025.707031
3518.144531	40136.675781
3516.906250	39943.656250
3515.666992	39902.648438
3514.427734	39879.882813
3513.188477	39996.843750
3511.948242	39935.593750
3510.708008	39929.015625
3509.467773	39940.648438
3508.227539	40249.683594
3506.986328	40249.097656
3505.745117	40392.089844
3504.503906	40185.230469
3503.262695	40168.472656
3502.020508	39763.679688
3500.778320	40098.593750
3499.535156	40273.765625
3498.292969	40192.355469
3497.049805	40343.191406
3495.806641	40128.546875
3494.563477	40202.621094
3493.319336	40230.246094
3492.075195	40144.875000
3490.831055	40555.742188
3489.585938	40389.660156
3488.340820	40645.035156
3487.095703	40144.378906
3485.850586	40518.593750
3484.604492	40278.093750
3483.358398	40156.546875
3482.112305	40113.597656
3480.866211	40215.640625
3479.619141	40649.804688
3478.372070	40755.703125
3477.125000	40213.593750
3475.876953	40663.562500
3474.629883	40491.796875
3473.380859	40209.503906
3472.132813	40017.796875
3470.883789	40395.031250
3469.634766	40434.476563
3468.385742	40875.742188
3467.136719	40505.257813
3465.886719	40743.464844
3464.636719	40435.406250
3463.386719	40402.503906
3462.135742	40114.718750
3460.884766	40192.253906
3459.633789	40616.820313
3458.381836	40439.476563
3457.130859	40759.515625
3455.878906	40592.234375
3454.625977	40651.519531
3453.374023	40610.574219
3452.121094	40271.117188
3450.868164	40624.875000
3449.614258	40305.582031
3448.361328	40703.214844
3447.107422	40592.218750
3445.853516	40619.359375
3444.598633	40278.316406
3443.343750	40553.562500
3442.088867	40700.683594
3440.833984	40531.796875
3439.578125	40528.910156
3438.322266	40639.949219
3437.066406	40353.273438
3435.809570	40020.773438
3434.553711	40655.156250
3433.295898	40518.425781
3432.039063	40651.281250
3430.782227	40520.593750
3429.524414	40224.316406
3428.265625	40574.613281
3427.007813	39991.199219
3425.749023	39884.683594
3424.490234	40326.531250
3423.231445	40461.187500
3421.971680	40711.375000
3420.711914	40166.410156
3419.452148	40456.386719
3418.192383	40461.414063
3416.931641	40464.449219
3415.670898	40212.648438
3414.409180	40327.187500
3413.148438	40218.796875
3411.886719	40496.414063
3410.625000	40187.125000
3409.362305	39995.300781
3408.099609	40012.320313
3406.836914	40480.542969
3405.574219	40284.792969
3404.311523	40095.082031
3403.047852	40286.851563
3401.783203	40271.984375
3400.519531	40280.949219
3399.254883	40168.808594
3397.990234	40090.457031
3396.725586	40254.210938
3395.459961	40052.867188
3394.194336	40030.113281
3392.928711	40536.804688
3391.663086	40323.625000
3390.396484	40090.714844
3389.129883	40170.996094
3387.862305	39977.835938
3386.595703	39862.007813
3385.328125	39908.609375
3384.060547	39739.382813
3382.791992	39742.433594
3381.523438	40188.769531
3380.254883	40136.312500
3378.986328	39830.675781
3377.716797	39570.660156
3376.447266	39694.335938
3375.177734	39764.574219
3373.908203	39769.562500
3372.637695	39902.972656
3371.367188	39805.195313
3370.095703	40023.457031
3368.825195	39755.871094
3367.553711	40017.468750
3366.282227	39568.417969
3365.009766	39581.300781
3363.737305	39521.183594
3362.464844	39630.707031
3361.192383	39485.800781
3359.918945	39660.335938
3358.645508	39684.988281
3357.372070	39999.304688
3356.097656	39744.101563
3354.823242	39812.039063
3353.548828	39994.160156
3352.274414	39737.144531
3350.999023	39696.765625
3349.723633	39628.843750
3348.447266	39503.894531
3347.171875	39534.394531
3345.895508	39789.070313
3344.619141	39843.078125
3343.341797	39993.382813
3342.064453	39675.863281
3340.787109	39721.988281
3339.509766	39652.187500
3338.231445	39729.710938
3336.953125	39606.910156
3335.674805	39896.417969
3334.395508	39691.195313
3333.117188	39996.242188
3331.836914	39612.558594
3330.557617	39823.332031
3329.277344	39626.136719
3327.997070	39805.433594
3326.716797	40047.371094
3325.435547	39746.386719
3324.154297	39823.648438
3322.873047	39800.976563
3321.591797	39938.890625
3320.309570	39585.320313
3319.027344	39817.164063
3317.744141	39698.609375
3316.461914	40045.746094
3315.178711	39686.585938
3313.894531	39744.132813
3312.611328	39795.781250
3311.327148	39923.636719
3310.042969	40010.390625
3308.757813	40003.316406
3307.472656	40045.074219
3306.187500	40282.109375
3304.902344	39931.316406
3303.616211	40144.832031
3302.330078	40436.316406
3301.043945	40274.980469
3299.757813	40049.339844
3298.470703	39734.082031
3297.183594	39771.890625
3295.895508	39640.074219
3294.607422	40328.847656
3293.319336	40058.609375
3292.031250	39751.476563
3290.742188	40377.414063
3289.454102	39992.449219
3288.164063	40109.925781
3286.875000	40048.281250
3285.584961	40146.226563
3284.294922	39997.046875
3283.003906	40203.871094
3281.713867	40381.429688
3280.422852	40485.023438
3279.130859	40339.769531
3277.839844	40406.394531
3276.547852	40344.757813
3275.254883	40349.187500
3273.962891	40338.074219
3272.669922	40455.101563
3271.376953	40698.238281
3270.083008	40522.085938
3268.790039	40668.082031
3267.496094	40358.167969
3266.201172	40535.152344
3264.907227	40182.742188
3263.612305	40320.910156
3262.316406	40228.390625
3261.021484	40277.347656
3259.725586	40242.984375
3258.429688	40107.925781
3257.132813	40352.421875
3255.836914	40356.765625
3254.540039	40268.210938
3253.242188	40228.058594
3251.945313	40441.335938
3250.647461	40254.171875
3249.348633	40594.949219
3248.050781	40415.562500
3246.751953	40292.296875
3245.453125	40240.578125
3244.153320	40092.289063
3242.853516	40280.113281
3241.553711	40328.824219
3240.253906	40475.964844
3238.953125	40877.792969
3237.652344	40607.941406
3236.351563	40394.152344
3235.049805	40450.476563
3233.748047	40304.300781
3232.446289	40836.777344
3231.143555	40434.234375
3229.840820	40284.296875
3228.538086	40355.968750
3227.235352	39792.007813
3225.931641	40699.464844
3224.627930	40360.917969
3223.324219	40547.972656
3222.019531	40484.781250
3220.714844	40517.804688
3219.410156	40210.371094
3218.104492	40537.644531
3216.798828	40272.632813
3215.493164	40201.863281
3214.186523	40419.371094
3212.879883	40584.898438
3211.573242	40548.667969
3210.266602	40523.972656
3208.958984	40416.730469
3207.651367	40359.437500
3206.343750	40298.328125
3205.035156	40603.679688
3203.726563	40391.007813
3202.417969	40395.117188
3201.108398	40299.531250
3199.798828	40414.824219
3198.489258	40411.250000
3197.178711	40034.078125
3195.868164	40101.453125
3194.557617	40314.335938
3193.247070	40287.792969
3191.935547	40157.898438
3190.624023	40481.597656
3189.311523	40581.296875
3188.000000	40095.632813
3186.687500	40017.519531
3185.374023	40109.593750
3184.061523	40362.187500
3182.748047	40379.601563
3181.433594	40033.996094
3180.120117	39892.929688
3178.805664	39965.808594
3177.491211	40332.671875
3176.175781	40350.050781
3174.860352	39703.312500
3173.544922	39907.792969
3172.229492	39757.390625
3170.913086	39755.796875
3169.596680	39687.472656
3168.280273	39832.664063
3166.962891	39800.550781
3165.645508	39469.324219
3164.327148	39823.980469
3163.009766	39824.253906
3161.691406	40159.613281
3160.373047	39819.074219
3159.053711	39708.960938
3157.734375	39792.957031
3156.415039	39766.585938
3155.094727	40084.433594
3153.774414	39848.855469
3152.454102	39763.550781
3151.133789	39735.292969
3149.812500	40117.433594
3148.491211	39999.820313
3147.168945	39753.121094
3145.847656	39760.945313
3144.525391	39812.425781
3143.202148	39571.621094
3141.879883	39860.269531
3140.556641	39737.164063
3139.232422	39978.222656
3137.909180	39826.699219
3136.584961	39834.464844
3135.259766	39726.625000
3133.935547	39719.242188
3132.610352	39876.660156
3131.285156	39844.621094
3129.958984	39592.964844
3128.632813	39901.718750
3127.306641	39646.375000
3125.980469	39873.605469
3124.653320	39470.839844
3123.326172	39936.273438
3121.998047	40025.246094
3120.670898	39567.898438
3119.341797	39957.378906
3118.013672	39628.726563
3116.684570	39866.890625
3115.355469	39551.625000
3114.026367	39566.902344
3112.696289	39782.250000
3111.366211	39514.390625
3110.036133	39763.601563
3108.705078	39671.281250
3107.374023	39839.242188
3106.042969	39447.167969
3104.711914	39684.835938
3103.379883	39500.265625
3102.046875	39720.843750
3100.714844	39461.000000
3099.381836	39581.667969
3098.048828	39604.375000
3096.714844	40097.628906
3095.380859	40037.394531
3094.046875	39772.117188
3092.712891	39894.429688
3091.377930	39777.859375
3090.042969	39965.906250
3088.707031	39785.457031
3087.372070	40039.175781
3086.036133	39719.761719
3084.699219	39967.730469
3083.362305	39672.886719
3082.025391	40031.507813
3080.688477	39749.917969
3079.350586	39954.472656
3078.012695	40016.343750
3076.674805	39954.390625
3075.335938	39646.816406
3073.997070	39779.941406
3072.658203	39986.097656
3071.318359	39926.066406
3069.978516	40036.542969
3068.638672	39809.824219
3067.298828	40135.605469
3065.958008	40442.503906
3064.616211	40112.898438
3063.275391	39893.847656
3061.933594	40060.265625
3060.591797	39910.523438
3059.249023	40514.398438
3057.906250	39639.273438
3056.563477	39730.820313
3055.219727	40358.589844
3053.876953	40335.960938
3052.532227	39943.542969
3051.188477	39835.121094
3049.843750	39829.417969
3048.499023	40032.746094
3047.153320	40265.824219
3045.808594	39840.289063
3044.461914	39793.542969
3043.116211	39894.117188
3041.769531	40153.085938
3040.422852	39947.875000
3039.076172	40122.859375
3037.728516	40092.843750
3036.380859	40040.496094
3035.032227	40237.660156
3033.683594	40131.308594
3032.334961	40092.000000
3030.986328	39846.179688
3029.636719	39829.269531
3028.287109	40096.898438
3026.937500	39691.343750
3025.586914	39834.328125
3024.236328	39774.679688
3022.885742	40019.753906
3021.534180	39447.414063
3020.182617	39655.296875
3018.830078	39501.042969
3017.478516	39500.917969
3016.125977	39864.511719
3014.772461	39567.449219
3013.419922	39585.843750
3012.066406	39619.062500
3010.711914	39761.640625
3009.358398	40009.800781
3008.003906	39336.859375
3006.648438	39607.226563
3005.292969	39594.070313
3003.937500	39540.183594
3002.582031	39353.019531
3001.225586	39365.835938
2999.869141	39571.085938
2998.512695	39396.988281
2997.155273	39450.460938
2995.797852	39080.464844
2994.440430	39420.519531
2993.082031	39056.242188
2991.723633	38926.800781
2990.365234	39152.101563
2989.005859	39063.324219
2987.646484	39037.359375
2986.287109	38974.484375
2984.926758	39177.398438
2983.566406	38937.378906
2982.206055	39250.875000
2980.844727	39186.148438
2979.483398	39315.046875
2978.122070	39101.015625
2976.759766	39157.992188
2975.397461	38999.367188
2974.035156	39087.644531
2972.671875	39225.597656
2971.308594	38910.562500
2969.945313	38904.910156
2968.581055	38862.453125
2967.216797	39090.460938
2965.852539	38834.605469
2964.487305	38700.234375
2963.122070	38836.183594
2961.756836	39012.496094
2960.390625	39205.261719
2959.024414	38789.828125
2957.658203	39094.585938
2956.291016	38923.597656
2954.923828	38556.250000
2953.556641	38772.734375
2952.188477	39033.144531
2950.820313	39249.402344
2949.452148	39126.242188
2948.083008	38876.621094
2946.713867	39422.718750
2945.343750	39105.328125
2943.974609	38877.867188
2942.604492	39408.902344
2941.233398	38798.699219
2939.862305	38686.816406
2938.491211	39177.230469
2937.120117	39376.417969
2935.748047	39409.007813
2934.375977	39518.402344
2933.003906	39375.371094
2931.630859	39139.156250
2930.257813	39228.417969
2928.883789	39158.644531
2927.509766	39335.546875
2926.135742	39282.210938
2924.761719	39645.253906
2923.386719	39391.039063
2922.011719	39439.929688
2920.635742	39240.617188
2919.260742	39426.343750
2917.883789	39420.460938
2916.507813	39051.703125
2915.130859	39149.816406
2913.753906	39244.234375
2912.375977	39145.457031
2910.998047	39154.199219
2909.620117	39592.757813
2908.242188	39464.820313
2906.863281	39418.855469
2905.483398	39331.054688
2904.104492	39487.101563
2902.724609	39503.003906
2901.344727	39113.335938
2899.963867	39627.496094
2898.583008	39347.046875
2897.202148	39522.871094
2895.820313	39478.765625
2894.438477	39478.273438
2893.056641	39552.230469
2891.673828	39054.253906
2890.291016	39146.421875
2888.908203	39481.703125
2887.524414	39706.156250
2886.140625	39538.714844
2884.755859	39703.191406
2883.372070	39559.390625
2881.987305	39671.214844
2880.601563	39676.070313
2879.215820	39407.371094
2877.830078	39640.480469
2876.444336	39484.175781
2875.057617	39315.269531
2873.670898	39522.886719
2872.283203	39609.167969
2870.895508	39778.613281
2869.507813	39711.058594
2868.120117	39536.859375
2866.731445	39407.929688
2865.342773	39555.554688
2863.953125	39549.535156
2862.563477	39287.015625
2861.173828	39595.273438
2859.783203	39260.648438
2858.392578	39520.019531
2857.001953	39360.609375
2855.610352	39132.714844
2854.218750	39330.589844
2852.827148	39137.066406
2851.434570	39387.117188
2850.041992	39249.539063
2848.649414	39340.867188
2847.255859	38888.101563
2845.862305	39033.496094
2844.467773	39000.554688
2843.073242	38733.605469
2841.678711	39035.492188
2840.284180	38937.789063
2838.888672	39045.195313
2837.493164	38762.296875
2836.096680	38598.195313
2834.700195	39012.968750
2833.303711	38733.867188
2831.906250	38636.355469
2830.509766	38716.710938
2829.111328	38829.347656
2827.713867	38638.519531
2826.315430	38268.289063
2824.916016	38517.316406
2823.517578	38633.464844
2822.118164	38213.277344
2820.717773	38835.089844
2819.317383	38728.769531
2817.916992	38161.894531
2816.516602	38383.679688
2815.115234	37985.546875
2813.713867	38500.968750
2812.311523	38532.707031
2810.909180	38197.468750
2809.506836	37993.031250
2808.104492	38275.339844
2806.701172	38350.011719
2805.296875	38514.062500
2803.893555	38279.335938
2802.489258	37917.820313
2801.084961	38646.519531
2799.679688	38088.562500
2798.274414	38414.988281
2796.868164	38155.558594
2795.462891	38017.644531
2794.056641	38399.160156
2792.649414	37972.187500
2791.242188	38109.128906
2789.834961	38552.750000
2788.427734	38193.792969
2787.019531	38277.089844
2785.611328	38287.273438
2784.202148	38290.320313
2782.792969	38074.269531
2781.383789	37961.605469
2779.973633	37886.382813
2778.563477	38284.656250
2777.153320	38415.804688
2775.742188	38276.464844
2774.331055	38396.871094
2772.918945	38435.417969
2771.507813	37810.839844
2770.095703	38414.687500
2768.682617	38129.800781
2767.269531	38049.335938
2765.856445	38270.828125
2764.442383	38023.460938
2763.028320	38349.570313
2761.614258	38127.144531
2760.200195	38107.085938
2758.785156	37953.996094
2757.369141	38485.500000
2755.953125	38227.781250
2754.537109	38065.906250
2753.121094	38455.207031
2751.704102	38169.332031
2750.287109	38161.667969
2748.869141	38644.500000
2747.452148	38086.152344
2746.033203	38193.542969
2744.615234	38297.335938
2743.196289	38462.992188
2741.777344	38419.871094
2740.357422	38378.535156
2738.937500	38384.945313
2737.516602	38255.269531
2736.096680	38316.468750
2734.675781	38762.699219
2733.253906	38461.722656
2731.832031	38483.972656
2730.410156	38416.191406
2728.988281	38124.332031
2727.565430	38661.773438
2726.141602	38391.156250
2724.718750	38245.863281
2723.294922	38148.238281
2721.870117	38188.121094
2720.446289	38198.031250
2719.021484	38185.027344
2717.595703	38147.375000
2716.169922	38190.726563
2714.744141	38286.859375
2713.318359	38060.898438
2711.891602	38019.777344
2710.463867	37968.121094
2709.037109	38164.433594
2707.609375	38183.078125
2706.181641	38389.777344
2704.752930	38380.234375
2703.324219	38421.640625
2701.894531	38190.792969
2700.464844	38125.109375
2699.035156	37941.839844
2697.605469	37781.472656
2696.174805	38151.058594
2694.744141	38046.843750
2693.312500	37846.222656
2691.880859	37817.515625
2690.449219	37601.269531
2689.016602	38171.941406
2687.583984	38069.585938
2686.150391	37851.671875
2684.717773	37901.781250
2683.283203	37939.605469
2681.849609	37818.136719
2680.415039	37738.722656
2678.980469	37925.238281
2677.544922	38094.167969
2676.109375	37929.058594
2674.673828	38083.910156
2673.237305	38133.828125
2671.800781	38164.500000
2670.363281	37884.238281
2668.925781	37876.531250
2667.488281	37769.308594
2666.050781	38266.046875
2664.612305	38026.156250
2663.172852	37999.214844
2661.734375	37776.945313
2660.294922	37694.277344
2658.854492	37510.539063
2657.414063	37488.964844
2655.973633	37922.152344
2654.533203	37599.128906
2653.091797	37539.226563
2651.650391	37557.695313
2650.208008	37738.031250
2648.765625	37559.796875
2647.323242	38018.386719
2645.879883	37756.675781
2644.436523	37848.082031
2642.992188	37782.980469
2641.547852	37624.058594
2640.103516	37927.398438
2638.659180	37773.718750
2637.213867	37779.890625
2635.767578	37615.902344
2634.321289	37641.195313
2632.875000	37808.773438
2631.428711	37721.226563
2629.981445	37430.781250
2628.534180	37801.160156
2627.085938	37552.441406
2625.637695	37525.691406
2624.189453	37589.058594
2622.740234	37621.207031
2621.291016	38025.695313
2619.841797	37810.109375
2618.391602	37461.339844
2616.941406	37737.484375
2615.490234	38174.394531
2614.040039	37632.054688
2612.587891	37330.355469
2611.136719	37792.960938
2609.684570	37709.144531
2608.231445	37715.222656
2606.778320	37161.566406
2605.325195	37478.656250
2603.872070	37926.808594
2602.417969	37717.031250
2600.962891	37398.625000
2599.508789	37299.503906
2598.053711	37521.265625
2596.597656	37818.796875
2595.142578	37374.812500
2593.685547	37460.210938
2592.229492	37492.140625
2590.772461	37227.734375
2589.315430	37492.218750
2587.857422	37541.324219
2586.399414	37633.441406
2584.941406	37386.457031
2583.482422	37595.562500
2582.023438	37328.062500
2580.563477	37292.863281
2579.103516	37054.796875
2577.643555	36961.234375
2576.182617	37199.375000
2574.721680	37540.476563
2573.260742	37307.722656
2571.798828	36832.968750
2570.336914	37112.089844
2568.874023	36968.859375
2567.411133	37127.687500
2565.948242	37039.410156
2564.484375	37009.484375
2563.020508	37113.304688
2561.556641	37091.937500
2560.091797	36895.781250
2558.626953	37270.234375
2557.161133	36914.832031
2555.695313	37056.199219
2554.229492	36846.542969
2552.762695	37013.519531
2551.295898	36851.882813
2549.829102	36746.769531
2548.361328	36809.312500
2546.892578	36673.484375
2545.424805	36970.191406
2543.956055	37047.996094
2542.486328	36842.152344
2541.017578	36882.367188
2539.547852	36546.878906
2538.077148	37085.644531
2536.606445	36811.710938
2535.135742	36681.246094
2533.664063	36784.550781
2532.192383	36655.855469
2530.720703	36665.332031
2529.248047	36780.484375
2527.775391	36634.835938
2526.301758	36112.726563
2524.828125	36241.550781
2523.354492	36482.691406
2521.879883	36567.082031
2520.405273	36220.816406
2518.929688	36538.339844
2517.455078	36564.804688
2515.978516	36439.882813
2514.502930	36757.101563
2513.026367	36344.910156
2511.548828	36288.109375
2510.071289	36148.078125
2508.593750	36296.875000
2507.116211	36387.855469
2505.637695	36037.382813
2504.158203	36362.601563
2502.679688	36149.746094
2501.200195	36277.980469
2499.719727	36574.046875
2498.239258	36539.328125
2496.758789	36194.410156
2495.277344	36029.304688
2493.795898	36306.480469
2492.314453	36295.562500
2490.832031	36426.890625
2489.349609	36348.222656
2487.867188	36332.210938
2486.383789	36544.644531
2484.899414	36125.964844
2483.415039	36382.304688
2481.930664	35999.378906
2480.446289	36078.121094
2478.960938	36298.777344
2477.475586	36470.324219
2475.989258	36248.214844
2474.502930	35936.718750
2473.016602	36093.019531
2471.529297	36234.046875
2470.041992	36076.332031
2468.553711	36112.691406
2467.065430	36174.328125
2465.577148	35930.750000
2464.087891	36251.988281
2462.598633	36089.394531
2461.108398	36282.375000
2459.618164	36082.792969
2458.127930	36408.703125
2456.636719	35779.886719
2455.145508	36043.425781
2453.654297	35876.066406
2452.162109	36235.328125
2450.669922	36199.175781
2449.176758	36178.171875
2447.683594	36251.308594
2446.189453	36216.851563
2444.696289	36333.617188
2443.201172	36270.597656
2441.707031	35989.304688
2440.211914	35855.886719
2438.715820	35908.832031
2437.220703	36005.371094
2435.723633	35920.687500
2434.227539	35800.828125
2432.730469	35904.019531
2431.233398	35879.757813
2429.735352	35783.449219
2428.237305	35884.882813
2426.738281	36026.457031
2425.239258	35871.562500
2423.740234	35388.625000
2422.240234	35605.523438
2420.740234	35733.625000
2419.240234	35647.535156
2417.739258	35292.238281
2416.238281	35610.910156
2414.736328	35563.355469
2413.234375	35373.777344
2411.731445	35538.476563
2410.229492	35487.625000
2408.725586	35582.070313
2407.222656	35355.941406
2405.718750	35555.507813
2404.213867	35282.777344
2402.708984	35380.500000
2401.204102	35234.687500
2399.699219	35295.687500
2398.193359	35530.003906
2396.686523	35124.296875
2395.179688	35258.570313
2393.672852	35132.945313
2392.166016	35247.160156
2390.658203	35109.941406
2389.149414	35536.976563
2387.641602	35772.449219
2386.131836	35177.757813
2384.623047	35117.183594
2383.113281	35031.699219
2381.603516	35230.476563
2380.092773	35163.277344
2378.582031	34958.226563
2377.070313	35357.824219
2375.558594	35076.437500
2374.046875	34803.496094
2372.534180	35098.261719
2371.021484	34783.968750
2369.507813	34993.988281
2367.994141	35008.218750
2366.480469	35065.539063
2364.965820	34855.984375
2363.451172	35040.898438
2361.936523	34963.976563
2360.420898	34822.496094
2358.904297	34950.976563
2357.388672	35266.433594
2355.872070	34832.062500
2354.354492	35092.785156
2352.836914	34926.628906
2351.319336	34619.996094
2349.800781	34622.664063
2348.282227	35020.339844
2346.763672	34867.578125
2345.244141	34515.007813
2343.723633	34776.972656
2342.204102	34957.894531
2340.682617	34508.179688
2339.162109	34557.054688
2337.640625	34381.531250
2336.119141	34631.628906
2334.596680	34441.328125
2333.074219	34509.941406
2331.550781	34611.472656
2330.027344	35101.800781
2328.503906	34596.941406
2326.979492	34602.847656
2325.455078	34610.394531
2323.930664	34186.695313
2322.405273	34312.816406
2320.878906	34180.589844
2319.353516	34359.273438
2317.826172	34578.968750
2316.299805	34561.835938
2314.772461	34263.679688
2313.245117	34387.925781
2311.716797	34086.679688
2310.188477	34205.972656
2308.659180	34106.855469
2307.129883	34339.328125
2305.600586	34067.925781
2304.070313	34229.742188
2302.540039	34179.906250
2301.008789	34151.406250
2299.477539	34034.402344
2297.946289	34546.742188
2296.414063	34113.492188
2294.881836	34289.769531
2293.348633	33876.453125
2291.815430	33920.085938
2290.282227	33898.230469
2288.748047	33846.933594
2287.213867	33645.160156
2285.678711	33829.441406
2284.143555	33614.695313
2282.607422	33735.132813
2281.072266	34084.285156
2279.535156	33987.253906
2277.999023	33731.843750
2276.460938	33773.738281
2274.923828	33595.230469
2273.385742	33788.910156
2271.847656	33572.960938
2270.308594	33505.554688
2268.769531	33591.468750
2267.229492	33775.152344
2265.689453	33895.171875
2264.149414	33449.703125
2262.608398	33755.453125
2261.067383	33588.738281
2259.526367	33545.847656
2257.984375	33559.953125
2256.441406	33578.925781
2254.898438	33588.125000
2253.355469	33548.523438
2251.812500	33708.949219
2250.268555	33443.359375
2248.723633	33392.437500
2247.178711	33434.156250
2245.633789	33706.511719
2244.087891	33623.074219
2242.541992	33393.554688
2240.996094	33547.210938
2239.449219	33611.539063
2237.902344	33174.535156
2236.354492	33535.722656
2234.806641	33567.562500
2233.257813	33615.593750
2231.708984	33589.046875
2230.160156	33253.050781
2228.610352	33741.699219
2227.060547	33486.800781
2225.509766	33427.921875
2223.958984	33195.890625
2222.408203	33256.855469
2220.856445	33563.671875
2219.304688	33339.863281
2217.751953	33856.679688
2216.199219	33411.453125
2214.645508	33302.585938
2213.092773	33193.769531
2211.538086	33303.058594
2209.983398	33526.929688
2208.428711	33203.425781
2206.874023	33141.539063
2205.318359	33403.996094
2203.761719	32954.949219
2202.206055	33376.960938
2200.648438	32991.023438
2199.091797	33248.394531
2197.534180	33265.535156
2195.975586	33253.664063
2194.416992	33220.859375
2192.858398	33312.046875
2191.298828	33073.195313
2189.739258	33349.437500
2188.179688	33335.937500
2186.619141	33460.769531
2185.057617	33128.847656
2183.497070	33446.574219
2181.934570	33339.832031
2180.373047	33147.980469
2178.810547	33512.031250
2177.247070	33029.550781
2175.683594	33176.691406
2174.120117	33143.976563
2172.555664	33177.066406
2170.991211	33226.183594
2169.426758	33171.015625
2167.861328	32960.343750
2166.295898	33171.375000
2164.729492	33023.304688
2163.163086	32848.074219
2161.595703	33320.046875
2160.028320	33088.777344
2158.459961	32968.089844
2156.892578	32697.009766
2155.323242	32851.699219
2153.754883	33227.058594
2152.184570	32824.976563
2150.615234	32950.722656
2149.044922	33025.250000
2147.473633	33120.507813
2145.903320	32777.972656
2144.331055	32814.144531
2142.759766	32794.406250
2141.187500	32805.007813
