#Wave		#Intensity
3550.240234	33605.656250
3549.007813	33668.820313
3547.776367	33294.949219
3546.543945	33458.925781
3545.311523	33376.441406
3544.078125	33532.179688
3542.844727	33748.910156
3541.611328	33444.593750
3540.377930	33508.652344
3539.143555	33652.007813
3537.909180	33665.144531
3536.674805	33834.832031
3535.440430	33504.378906
3534.205078	33375.261719
3532.969727	33587.562500
3531.734375	33464.570313
3530.499023	33678.781250
3529.262695	33712.171875
3528.026367	33532.378906
3526.790039	33724.101563
3525.552734	33617.425781
3524.315430	33411.382813
3523.078125	33860.605469
3521.840820	33875.640625
3520.602539	33653.437500
3519.364258	34051.628906
3518.125977	33766.652344
3516.886719	33998.488281
3515.648438	33885.832031
3514.409180	34111.457031
3513.168945	33537.128906
3511.929688	33892.296875
3510.689453	33992.269531
3509.449219	34175.167969
3508.208984	34163.757813
3506.967773	34041.093750
3505.726563	34585.847656
3504.485352	34089.085938
3503.243164	33986.722656
3502.001953	34221.906250
3500.758789	34200.375000
3499.516602	34059.656250
3498.274414	34217.914063
3497.031250	34192.343750
3495.788086	34310.117188
3494.543945	34189.667969
3493.300781	34204.468750
3492.056641	34441.187500
3490.811523	34213.867188
3489.567383	34855.820313
3488.322266	34465.191406
3487.077148	34449.660156
3485.832031	34291.042969
3484.585938	34285.621094
3483.339844	34475.605469
3482.093750	34677.585938
3480.847656	34962.031250
3479.600586	34690.718750
3478.353516	34640.917969
3477.106445	34740.042969
3475.858398	34861.253906
3474.610352	34773.222656
3473.362305	34528.367188
3472.114258	34719.902344
3470.865234	34822.902344
3469.616211	34544.023438
3468.367188	34960.449219
3467.117188	34822.265625
3465.868164	34736.355469
3464.617188	34538.035156
3463.367188	34747.316406
3462.117188	34842.101563
3460.866211	34956.906250
3459.614258	34822.890625
3458.363281	35280.621094
3457.111328	34869.859375
3455.859375	34940.433594
3454.607422	34952.847656
3453.354492	35171.660156
3452.102539	34985.660156
3450.848633	35014.066406
3449.595703	35242.726563
3448.341797	35110.878906
3447.087891	35115.207031
3445.833984	34983.441406
3444.580078	35025.804688
3443.325195	35290.195313
3442.070313	35332.468750
3440.814453	35294.730469
3439.559570	35065.089844
3438.303711	35209.304688
3437.046875	35337.464844
3435.791016	35365.675781
3434.534180	35393.867188
3433.277344	35461.984375
3432.020508	35000.988281
3430.762695	35176.937500
3429.504883	35163.222656
3428.247070	35165.472656
3426.988281	35077.949219
3425.730469	35165.964844
3424.471680	35409.460938
3423.211914	35351.832031
3421.953125	35264.332031
3420.693359	35392.062500
3419.432617	35119.316406
3418.172852	35169.339844
3416.912109	35406.515625
3415.651367	35247.410156
3414.390625	35460.570313
3413.128906	35265.695313
3411.867188	35134.566406
3410.605469	35472.910156
3409.343750	35278.148438
3408.081055	35359.828125
3406.818359	35294.375000
3405.554688	35268.691406
3404.291992	35405.937500
3403.028320	35120.011719
3401.764648	35273.113281
3400.500000	35370.542969
3399.236328	35118.550781
3397.971680	35287.414063
3396.706055	35311.351563
3395.441406	35192.441406
3394.175781	35408.761719
3392.909180	35274.011719
3391.643555	34897.453125
3390.376953	35185.039063
3389.110352	35438.808594
3387.843750	35508.214844
3386.576172	35409.222656
3385.308594	35256.804688
3384.041016	35197.500000
3382.773438	35425.230469
3381.504883	35142.289063
3380.236328	35144.371094
3378.966797	34907.105469
3377.698242	35025.914063
3376.428711	35267.250000
3375.158203	35223.824219
3373.888672	35188.316406
3372.618164	35362.265625
3371.347656	35150.921875
3370.077148	35389.968750
3368.805664	35433.425781
3367.534180	35131.386719
3366.262695	35682.105469
3364.990234	35427.496094
3363.717773	35318.984375
3362.445313	35502.421875
3361.172852	35330.832031
3359.899414	35587.125000
3358.625977	35265.785156
3357.352539	35307.171875
3356.078125	34948.597656
3354.803711	35352.460938
3353.529297	35169.292969
3352.254883	35261.839844
3350.979492	35417.332031
3349.704102	35265.746094
3348.428711	35458.542969
3347.152344	35397.496094
3345.875977	35485.937500
3344.599609	35951.839844
3343.322266	35354.062500
3342.044922	35444.406250
3340.767578	35489.511719
3339.490234	35528.703125
3338.211914	35379.328125
3336.933594	35357.648438
3335.655273	35534.246094
3334.375977	35485.054688
3333.097656	35700.781250
3331.817383	35618.214844
3330.538086	35510.187500
3329.257813	35568.878906
3327.977539	35666.750000
3326.697266	35468.609375
3325.416016	35515.500000
3324.134766	35724.976563
3322.853516	35513.234375
3321.572266	35620.781250
3320.290039	35653.875000
3319.007813	36152.808594
3317.724609	36099.656250
3316.442383	35727.613281
3315.159180	35872.132813
3313.875000	35961.828125
3312.591797	35848.140625
3311.307617	35847.871094
3310.023438	36003.945313
3308.738281	35786.757813
3307.454102	36145.921875
3306.167969	36069.406250
3304.882813	35961.679688
3303.596680	36150.718750
3302.310547	36187.437500
3301.024414	35865.113281
3299.738281	36157.421875
3298.451172	36053.679688
3297.164063	36070.871094
3295.875977	35967.187500
3294.587891	36555.441406
3293.299805	36623.156250
3292.011719	36053.804688
3290.722656	36289.097656
3289.433594	36325.664063
3288.144531	36426.449219
3286.855469	36437.656250
3285.565430	36386.582031
3284.275391	36454.203125
3282.984375	36547.074219
3281.694336	36338.488281
3280.402344	36824.050781
3279.111328	36621.320313
3277.819336	36737.371094
3276.528320	36760.109375
3275.235352	36613.847656
3273.943359	36700.679688
3272.650391	36645.742188
3271.357422	36728.636719
3270.063477	36743.570313
3268.770508	37158.164063
3267.476563	36994.531250
3266.181641	37108.281250
3264.887695	36871.046875
3263.592773	36664.933594
3262.296875	36788.359375
3261.001953	36820.664063
3259.706055	37079.589844
3258.410156	37013.035156
3257.113281	36932.953125
3255.816406	36789.023438
3254.519531	36819.335938
3253.222656	36847.695313
3251.924805	36957.281250
3250.626953	36815.398438
3249.329102	36754.781250
3248.030273	36835.308594
3246.732422	37047.210938
3245.432617	36940.199219
3244.133789	36879.593750
3242.833984	36807.425781
3241.534180	36843.414063
3240.234375	37020.308594
3238.933594	37301.335938
3237.632813	37070.894531
3236.331055	37085.554688
3235.030273	37019.199219
3233.728516	36962.507813
3232.426758	37106.332031
3231.124023	37192.269531
3229.821289	37204.933594
3228.518555	37023.019531
3227.215820	37110.828125
3225.912109	37173.558594
3224.608398	37655.937500
3223.303711	37566.453125
3222.000000	37534.734375
3220.695313	37368.359375
3219.389648	37421.320313
3218.084961	37249.269531
3216.779297	37390.664063
3215.473633	37630.007813
3214.166992	37513.742188
3212.860352	37309.152344
3211.553711	37296.726563
3210.246094	37017.382813
3208.939453	37118.289063
3207.631836	37019.531250
3206.323242	37082.003906
3205.015625	37587.621094
3203.707031	37206.851563
3202.397461	37179.097656
3201.088867	37373.750000
3199.779297	37428.382813
3198.468750	37435.078125
3197.159180	37349.804688
3195.848633	37151.554688
3194.538086	37160.214844
3193.226563	37314.367188
3191.916016	37388.054688
3190.603516	37266.511719
3189.291992	37240.679688
3187.979492	37365.964844
3186.666992	37129.761719
3185.354492	37251.179688
3184.041016	37374.453125
3182.727539	37186.171875
3181.414063	37253.988281
3180.099609	37434.464844
3178.785156	37525.101563
3177.470703	37350.304688
3176.156250	37330.199219
3174.840820	37573.453125
3173.525391	37370.136719
3172.208984	37208.875000
3170.893555	37328.015625
3169.576172	37193.523438
3168.259766	37144.867188
3166.942383	37248.683594
3165.625000	37068.562500
3164.307617	37107.578125
3162.989258	37234.171875
3161.670898	37271.214844
3160.352539	36990.359375
3159.033203	37402.332031
3157.714844	37146.300781
3156.394531	37419.183594
3155.075195	37224.113281
3153.754883	37683.164063
3152.434570	37159.273438
3151.113281	37220.941406
3149.791992	37008.980469
3148.470703	37420.152344
3147.149414	37257.613281
3145.827148	37131.218750
3144.504883	37109.281250
3143.182617	37244.859375
3141.859375	37547.332031
3140.536133	37386.828125
3139.212891	37292.769531
3137.888672	37361.804688
3136.564453	37493.355469
3135.240234	37194.656250
3133.915039	37364.070313
3132.589844	37336.402344
3131.264648	37265.187500
3129.939453	37184.539063
3128.613281	37344.312500
3127.287109	37212.578125
3125.959961	37317.394531
3124.632813	37407.027344
3123.305664	37197.824219
3121.978516	37419.781250
3120.650391	37388.339844
3119.322266	37593.132813
3117.993164	37183.796875
3116.665039	37424.421875
3115.335938	37646.046875
3114.005859	37312.488281
3112.676758	37311.296875
3111.346680	37542.214844
3110.015625	37348.519531
3108.685547	37462.367188
3107.354492	37289.515625
3106.022461	37750.218750
3104.691406	37402.078125
3103.359375	37551.593750
3102.027344	37623.789063
3100.694336	37511.355469
3099.361328	37645.664063
3098.028320	37702.714844
3096.695313	37637.386719
3095.361328	37732.039063
3094.027344	37676.136719
3092.692383	37578.871094
3091.357422	37705.429688
3090.022461	37608.195313
3088.687500	37516.644531
3087.351563	37814.117188
3086.015625	37884.121094
3084.678711	37542.746094
3083.342773	37881.300781
3082.005859	37817.933594
3080.667969	37737.699219
3079.331055	37863.910156
3077.993164	37898.132813
3076.654297	37741.023438
3075.315430	37805.253906
3073.976563	38167.531250
3072.637695	38053.566406
3071.298828	38188.871094
3069.958984	38061.832031
3068.618164	38234.523438
3067.278320	38030.753906
3065.937500	38186.511719
3064.595703	38576.144531
3063.254883	38204.019531
3061.913086	38118.289063
3060.571289	38163.515625
3059.228516	37946.933594
3057.885742	38214.632813
3056.542969	38323.335938
3055.200195	38482.437500
3053.856445	38251.023438
3052.511719	38142.984375
3051.167969	38268.390625
3049.823242	38149.187500
3048.478516	38517.144531
3047.132813	38388.601563
3045.788086	38314.214844
3044.441406	38583.015625
3043.095703	38607.429688
3041.749023	38216.128906
3040.402344	38460.523438
3039.055664	38361.960938
3037.708008	38468.351563
3036.360352	38651.042969
3035.011719	38563.664063
3033.663086	38440.957031
3032.314453	38292.250000
3030.965820	38290.593750
3029.616211	38331.718750
3028.266602	38573.667969
3026.916992	38354.402344
3025.566406	38250.480469
3024.215820	37953.339844
3022.865234	38529.554688
3021.513672	38317.921875
3020.162109	38308.800781
3018.809570	38320.105469
3017.458008	38101.234375
3016.105469	37986.386719
3014.751953	38389.207031
3013.399414	38263.207031
3012.045898	38433.964844
3010.691406	38345.082031
3009.336914	38545.386719
3007.982422	38413.894531
3006.627930	38380.648438
3005.272461	38104.777344
3003.916992	38403.074219
3002.561523	38119.917969
3001.205078	38279.246094
2999.848633	38479.203125
2998.492188	38142.570313
2997.134766	38366.496094
2995.777344	38179.820313
2994.419922	38416.562500
2993.061523	38289.097656
2991.703125	38126.582031
2990.344727	37951.207031
2988.985352	38346.593750
2987.625977	38189.707031
2986.266602	38444.542969
2984.906250	38326.457031
2983.545898	38049.742188
2982.185547	38263.835938
2980.824219	38623.515625
2979.462891	38595.828125
2978.101563	38317.453125
2976.739258	38391.203125
2975.376953	38402.269531
2974.014648	38332.277344
2972.651367	38396.750000
2971.288086	38551.402344
2969.924805	38019.398438
2968.560547	38093.085938
2967.196289	38207.210938
2965.832031	38516.250000
2964.466797	38256.910156
2963.101563	38337.812500
2961.736328	38220.160156
2960.370117	38350.636719
2959.003906	38135.660156
2957.637695	38411.183594
2956.270508	38348.699219
2954.903320	38638.722656
2953.535156	38322.917969
2952.167969	38645.828125
2950.799805	38482.433594
2949.430664	38852.824219
2948.062500	38757.292969
2946.692383	39004.609375
2945.323242	38606.679688
2943.953125	38285.890625
2942.583008	38602.738281
2941.212891	38520.183594
2939.841797	38737.941406
2938.470703	38889.691406
2937.099609	38613.125000
2935.727539	39011.828125
2934.355469	39002.417969
2932.982422	38872.312500
2931.609375	39179.234375
2930.236328	38946.781250
2928.863281	38997.683594
2927.489258	39079.621094
2926.115234	39482.988281
2924.740234	39389.453125
2923.366211	39449.312500
2921.990234	39381.375000
2920.615234	39335.363281
2919.239258	38929.972656
2917.863281	39170.437500
2916.486328	39078.910156
2915.109375	38929.085938
2913.732422	39234.976563
2912.355469	39048.738281
2910.977539	39283.398438
2909.599609	39262.964844
2908.220703	39353.605469
2906.841797	39331.332031
2905.462891	39210.792969
2904.083008	39266.796875
2902.703125	39311.855469
2901.323242	39224.128906
2899.942383	39872.804688
2898.561523	39588.660156
2897.180664	39571.792969
2895.798828	39709.363281
2894.416992	39429.085938
2893.035156	39564.796875
2891.652344	39642.343750
2890.269531	39345.937500
2888.886719	39722.910156
2887.502930	39725.964844
2886.119141	39792.496094
2884.735352	39907.953125
2883.350586	39532.050781
2881.965820	39662.003906
2880.581055	39563.578125
2879.195313	39456.136719
2877.809570	39687.425781
2876.422852	39645.183594
2875.036133	39369.433594
2873.649414	39692.863281
2872.262695	39585.500000
2870.875000	39709.726563
2869.487305	39251.554688
2868.098633	39158.828125
2866.709961	39626.503906
2865.321289	39974.671875
2863.931641	39493.378906
2862.541992	39389.832031
2861.152344	39559.011719
2859.761719	39413.964844
2858.371094	39149.855469
2856.980469	39598.660156
2855.588867	39570.964844
2854.197266	39325.035156
2852.805664	39311.835938
2851.413086	39439.253906
2850.020508	39544.976563
2848.627930	39391.171875
2847.234375	39278.875000
2845.840820	39004.535156
2844.447266	39099.441406
2843.052734	38848.671875
2841.658203	39533.863281
2840.262695	38955.636719
2838.867188	39237.523438
2837.471680	38895.234375
2836.075195	38709.527344
2834.679688	38957.101563
2833.282227	39244.085938
2831.885742	38880.554688
2830.488281	39020.121094
2829.089844	38796.878906
2827.692383	38561.175781
2826.293945	38724.042969
2824.894531	38737.886719
2823.496094	39139.222656
2822.096680	38806.796875
2820.696289	38705.839844
2819.296875	38361.128906
2817.895508	38616.976563
2816.495117	38532.253906
2815.093750	38710.898438
2813.692383	38923.476563
2812.290039	38826.199219
2810.888672	38705.691406
2809.485352	38937.789063
2808.083008	38582.929688
2806.679688	38496.542969
2805.276367	38996.750000
2803.872070	38792.300781
2802.467773	38959.726563
2801.063477	38537.371094
2799.658203	38706.554688
2798.252930	38414.843750
2796.847656	38755.390625
2795.441406	38920.812500
2794.035156	38793.449219
2792.627930	38500.203125
2791.220703	38469.328125
2789.813477	38467.000000
2788.406250	38735.683594
2786.998047	38572.851563
2785.589844	38679.199219
2784.180664	38797.957031
2782.771484	38954.062500
2781.362305	38876.796875
2779.952148	38642.898438
2778.541992	38772.214844
2777.131836	38876.546875
2775.720703	38810.039063
2774.309570	39070.824219
2772.897461	38716.226563
2771.486328	39024.894531
2770.074219	38999.277344
2768.661133	39037.632813
2767.248047	38489.746094
2765.834961	38954.437500
2764.420898	39244.894531
2763.006836	38951.191406
2761.592773	38755.234375
2760.177734	38603.726563
2758.762695	39027.000000
2757.347656	39379.125000
2755.931641	39197.425781
2754.515625	38854.515625
2753.099609	39236.535156
2751.682617	38996.531250
2750.265625	39185.261719
2748.847656	39191.507813
2747.430664	39183.589844
2746.011719	39281.859375
2744.593750	39153.589844
2743.174805	39870.953125
2741.754883	39339.367188
2740.335938	38951.257813
2738.916016	39245.656250
2737.495117	38903.699219
2736.075195	39364.031250
2734.653320	38963.917969
2733.232422	39286.257813
2731.810547	39435.417969
2730.388672	39139.710938
2728.965820	39306.472656
2727.542969	38924.492188
2726.120117	39227.019531
2724.697266	39157.339844
2723.273438	38987.210938
2721.848633	39367.035156
2720.423828	39265.644531
2718.999023	39227.718750
2717.574219	39089.421875
2716.148438	39371.992188
2714.722656	39606.886719
2713.295898	39431.632813
2711.870117	39057.656250
2710.442383	39230.882813
2709.015625	39375.882813
2707.587891	38982.847656
2706.159180	38976.671875
2704.731445	39139.187500
2703.301758	39017.027344
2701.873047	39276.042969
2700.443359	39181.992188
2699.013672	39449.605469
2697.583984	38979.988281
2696.153320	39312.425781
2694.721680	39183.363281
2693.291016	39219.207031
2691.859375	39346.199219
2690.426758	39438.066406
2688.995117	39400.210938
2687.562500	39402.660156
2686.128906	39342.054688
2684.695313	39225.437500
2683.261719	39080.867188
2681.828125	39485.921875
2680.393555	39227.617188
2678.958008	39167.109375
2677.523438	39089.136719
2676.087891	39093.378906
2674.651367	39518.878906
2673.215820	39220.675781
2671.778320	39111.304688
2670.341797	39333.855469
2668.904297	39131.949219
2667.466797	39551.656250
2666.028320	38972.785156
2664.589844	39312.046875
2663.151367	39194.066406
2661.711914	39001.152344
2660.272461	39096.027344
2658.833008	39305.902344
2657.392578	38712.253906
2655.952148	39077.179688
2654.510742	39241.601563
2653.069336	39123.820313
2651.627930	39011.320313
2650.185547	39231.320313
2648.743164	39327.660156
2647.300781	39147.328125
2645.857422	39248.847656
2644.414063	39348.574219
2642.970703	39044.933594
2641.526367	39351.472656
2640.082031	39239.105469
2638.636719	39340.457031
2637.191406	39261.136719
2635.746094	38836.339844
2634.299805	39392.484375
2632.853516	39254.199219
2631.406250	39194.046875
2629.959961	39364.613281
2628.511719	39516.015625
2627.064453	39644.800781
2625.616211	39442.472656
2624.167969	39340.746094
2622.718750	39211.347656
2621.269531	39357.382813
2619.819336	39489.488281
2618.370117	39363.597656
2616.918945	39483.511719
2615.468750	40041.093750
2614.017578	39192.125000
2612.566406	39507.390625
2611.114258	39563.167969
2609.662109	39532.488281
2608.209961	39394.687500
2606.756836	39555.816406
2605.303711	39478.519531
2603.849609	39389.171875
2602.395508	39520.820313
2600.941406	39512.613281
2599.486328	39069.605469
2598.031250	38982.160156
2596.576172	39274.144531
2595.120117	39310.816406
2593.664063	39588.773438
2592.207031	39210.046875
2590.750000	39315.605469
2589.292969	39431.441406
2587.834961	39412.902344
2586.376953	39866.058594
2584.918945	39215.789063
2583.459961	39211.074219
2582.000977	38987.898438
2580.541016	39316.863281
2579.081055	39516.714844
2577.621094	39730.210938
2576.161133	39527.730469
2574.699219	38942.234375
2573.238281	39277.648438
2571.776367	39138.960938
2570.314453	39067.285156
2568.851563	39040.269531
2567.389648	39449.089844
2565.925781	39049.738281
2564.462891	39245.679688
2562.998047	39139.761719
2561.534180	39189.878906
2560.069336	39274.238281
2558.604492	39295.160156
2557.138672	39213.296875
2555.672852	39316.414063
2554.207031	39152.406250
2552.740234	39459.144531
2551.273438	39310.578125
2549.806641	39198.003906
2548.338867	39047.859375
2546.871094	39243.164063
2545.402344	39093.074219
2543.933594	39030.214844
2542.464844	38999.843750
2540.995117	39358.921875
2539.525391	38942.546875
2538.054688	38744.902344
2536.583984	39025.250000
2535.113281	39003.429688
2533.641602	38947.500000
2532.169922	38944.460938
2530.698242	38782.855469
2529.225586	38960.542969
2527.752930	39034.179688
2526.279297	39087.332031
2524.805664	39092.761719
2523.332031	39050.500000
2521.857422	39044.011719
2520.382813	38972.843750
2518.908203	39177.367188
2517.432617	39337.550781
2515.956055	39227.234375
2514.480469	39142.476563
2513.003906	38913.265625
2511.526367	38667.175781
2510.049805	38920.710938
2508.571289	39000.863281
2507.093750	38797.378906
2505.615234	38982.769531
2504.135742	38954.203125
2502.657227	38903.593750
2501.177734	38791.929688
2499.697266	38744.769531
2498.216797	38890.921875
2496.736328	39048.859375
2495.254883	38766.097656
2493.773438	38885.011719
2492.291992	39003.863281
2490.809570	38602.773438
2489.327148	38802.890625
2487.843750	38764.253906
2486.360352	38925.304688
2484.876953	38737.781250
2483.392578	38900.437500
2481.908203	38589.578125
2480.423828	38701.468750
2478.938477	39200.300781
2477.453125	38865.937500
2475.966797	38678.691406
2474.480469	38812.386719
2472.993164	38905.488281
2471.506836	38843.261719
2470.018555	39197.847656
2468.531250	38863.972656
2467.042969	38999.117188
2465.553711	38881.273438
2464.065430	38957.335938
2462.576172	39164.804688
2461.085938	38929.062500
2459.595703	38967.988281
2458.105469	39146.660156
2456.614258	38902.671875
2455.123047	38783.355469
2453.630859	39091.488281
2452.139648	38963.761719
2450.646484	39280.093750
2449.154297	38975.835938
2447.661133	38885.207031
2446.166992	38966.035156
2444.672852	38915.769531
2443.178711	38778.183594
2441.683594	38675.925781
2440.188477	39107.578125
2438.693359	39166.406250
2437.197266	39008.746094
2435.701172	38993.753906
2434.205078	38603.097656
2432.708008	38844.734375
2431.209961	38747.644531
2429.712891	38943.871094
2428.213867	38687.636719
2426.715820	38835.195313
2425.216797	38694.656250
2423.717773	38885.656250
2422.217773	38745.167969
2420.717773	38551.207031
2419.216797	38894.308594
2417.715820	38921.152344
2416.214844	38764.066406
2414.713867	38647.171875
2413.210938	38622.242188
2411.708984	38695.894531
2410.206055	38482.222656
2408.703125	38425.617188
2407.199219	38420.789063
2405.695313	38619.570313
2404.191406	38349.390625
2402.686523	38833.328125
2401.181641	38301.402344
2399.675781	38478.320313
2398.169922	38680.148438
2396.664063	38333.628906
2395.157227	38288.820313
2393.650391	38562.148438
2392.142578	38668.824219
2390.634766	38733.820313
2389.126953	38401.027344
2387.618164	38447.750000
2386.109375	38412.937500
2384.599609	38338.230469
2383.089844	38193.730469
2381.580078	38233.796875
2380.069336	38433.363281
2378.558594	38446.757813
2377.047852	38235.929688
2375.536133	38367.250000
2374.023438	38242.863281
2372.511719	38399.003906
2370.998047	38072.250000
2369.485352	38402.507813
2367.971680	38454.003906
2366.458008	38377.812500
2364.943359	38230.386719
2363.428711	38333.242188
2361.913086	38235.593750
2360.397461	38005.500000
2358.881836	38181.175781
2357.365234	38386.550781
2355.848633	38279.042969
2354.332031	38320.492188
2352.814453	38356.953125
2351.295898	37936.996094
2349.778320	38221.503906
2348.258789	38267.867188
2346.740234	38196.886719
2345.220703	38424.933594
2343.701172	38059.980469
2342.180664	38190.523438
2340.660156	37989.222656
2339.138672	38288.031250
2337.617188	37669.410156
2336.095703	37964.839844
2334.573242	38126.554688
2333.050781	38218.945313
2331.528320	38052.535156
2330.004883	38022.960938
2328.480469	38266.839844
2326.957031	38273.449219
2325.431641	37907.968750
2323.907227	37847.175781
2322.381836	38178.046875
2320.856445	37740.476563
2319.330078	37814.628906
2317.803711	37919.976563
2316.276367	37796.777344
2314.749023	37892.207031
2313.221680	38104.238281
2311.693359	37714.980469
2310.165039	37849.757813
2308.635742	37831.785156
2307.106445	37695.644531
2305.577148	37769.601563
2304.046875	37981.316406
2302.516602	37820.628906
2300.985352	37694.457031
2299.454102	37433.929688
2297.922852	37814.289063
2296.390625	37889.718750
2294.858398	37963.468750
2293.325195	37690.027344
2291.791992	37619.718750
2290.258789	37284.312500
2288.724609	37690.277344
2287.190430	37695.261719
2285.655273	37562.867188
2284.120117	37484.492188
2282.583984	37553.261719
2281.048828	37401.386719
2279.511719	37316.566406
2277.975586	37530.675781
2276.438477	37475.250000
2274.900391	37351.289063
2273.362305	37199.644531
2271.824219	37403.757813
2270.285156	37278.273438
2268.746094	37224.597656
2267.206055	37298.109375
2265.666016	37459.597656
2264.125977	37332.582031
2262.584961	37401.109375
2261.043945	37456.574219
2259.502930	37376.863281
2257.960938	37489.269531
2256.417969	37339.609375
2254.875000	37382.000000
2253.332031	37346.296875
2251.789063	37543.132813
2250.245117	37448.875000
2248.700195	37203.511719
2247.155273	37109.378906
2245.610352	37098.140625
2244.064453	37280.156250
2242.518555	36820.765625
2240.972656	37502.679688
2239.425781	37239.812500
2237.877930	37246.378906
2236.331055	37405.394531
2234.783203	37205.984375
2233.234375	37455.703125
2231.685547	37313.097656
2230.136719	37113.851563
2228.586914	37467.054688
2227.037109	37314.828125
2225.486328	37081.734375
2223.935547	37025.171875
2222.384766	37263.132813
2220.833008	37305.226563
2219.281250	37104.703125
2217.728516	37032.015625
2216.175781	37051.496094
2214.622070	37314.976563
2213.068359	37366.679688
2211.514648	37211.609375
2209.959961	37224.550781
2208.405273	37140.621094
2206.850586	37344.003906
2205.294922	37221.359375
2203.738281	37024.570313
2202.181641	37127.832031
2200.625000	37239.101563
2199.068359	37169.785156
2197.510742	37132.726563
2195.952148	37271.281250
2194.393555	37681.941406
2192.834961	37076.398438
2191.275391	37588.300781
2189.715820	37351.613281
2188.155273	37292.023438
2186.595703	37319.316406
2185.034180	37193.828125
2183.472656	37283.824219
2181.911133	37155.187500
2180.349609	37465.265625
2178.787109	37302.910156
2177.223633	37285.171875
2175.660156	37137.390625
2174.096680	36972.027344
2172.532227	37408.503906
2170.967773	37243.148438
2169.403320	37299.207031
2167.837891	37246.199219
2166.271484	37472.140625
2164.705078	37223.593750
2163.138672	36864.617188
2161.572266	37341.949219
2160.003906	37361.042969
2158.436523	37293.675781
2156.868164	36877.425781
2155.299805	37104.625000
2153.730469	36739.824219
2152.161133	37003.722656
2150.590820	37249.890625
2149.020508	37209.804688
2147.450195	37227.269531
2145.878906	37078.570313
2144.307617	36973.066406
2142.735352	36941.070313
2141.163086	37287.417969
