#Wave		#Intensity
3550.429688	20869.503906
3549.198242	20759.470703
3547.965820	20830.417969
3546.733398	21068.347656
3545.500977	20941.669922
3544.268555	21055.279297
3543.035156	20887.943359
3541.801758	21050.351563
3540.568359	21007.195313
3539.333984	21094.240234
3538.099609	21122.267578
3536.865234	21034.382813
3535.630859	21135.587891
3534.395508	21139.193359
3533.160156	20998.521484
3531.924805	21219.525391
3530.689453	21017.958984
3529.453125	21137.324219
3528.216797	21222.123047
3526.980469	21254.105469
3525.743164	21213.015625
3524.505859	21072.523438
3523.268555	21207.964844
3522.031250	21061.445313
3520.792969	21316.457031
3519.555664	21275.386719
3518.316406	21230.277344
3517.078125	21361.474609
3515.838867	21269.765625
3514.599609	21315.824219
3513.360352	21653.462891
3512.121094	21415.974609
3510.880859	21332.419922
3509.640625	21295.443359
3508.399414	21345.482422
3507.159180	21454.158203
3505.917969	21528.404297
3504.676758	21408.509766
3503.434570	21502.943359
3502.192383	21706.472656
3500.951172	21604.794922
3499.708008	21624.371094
3498.465820	21702.509766
3497.222656	21469.632813
3495.979492	21576.031250
3494.735352	21886.246094
3493.492188	21592.931641
3492.248047	21515.625000
3491.003906	21629.980469
3489.758789	21865.287109
3488.514648	21550.042969
3487.268555	21726.798828
3486.023438	22028.433594
3484.778320	21943.058594
3483.532227	22002.763672
3482.286133	22020.146484
3481.039063	21952.943359
3479.792969	21736.791016
3478.545898	21866.927734
3477.297852	22129.820313
3476.050781	22120.988281
3474.802734	22051.812500
3473.554688	21817.759766
3472.306641	21923.599609
3471.057617	21930.890625
3469.808594	21845.730469
3468.559570	21971.578125
3467.310547	22101.386719
3466.060547	21974.060547
3464.810547	22033.527344
3463.559570	22153.193359
3462.309570	22084.136719
3461.058594	22255.908203
3459.807617	22166.791016
3458.556641	22073.701172
3457.304688	22050.833984
3456.052734	22188.369141
3454.800781	22301.787109
3453.547852	22359.041016
3452.294922	22229.931641
3451.041992	22170.986328
3449.789063	22254.259766
3448.535156	22259.402344
3447.281250	22276.552734
3446.027344	22213.636719
3444.772461	22248.792969
3443.518555	22333.945313
3442.263672	22373.054688
3441.007813	22166.187500
3439.752930	22363.250000
3438.497070	22210.437500
3437.241211	22377.425781
3435.984375	22374.513672
3434.727539	22389.578125
3433.470703	22612.324219
3432.213867	22579.408203
3430.956055	22558.480469
3429.699219	22308.050781
3428.440430	22626.382813
3427.182617	22356.095703
3425.923828	22375.113281
3424.665039	22372.185547
3423.406250	22580.570313
3422.146484	22491.890625
3420.886719	22469.005859
3419.626953	22324.603516
3418.367188	22492.968750
3417.106445	22597.535156
3415.845703	22634.363281
3414.584961	22607.478516
3413.323242	22510.953125
3412.061523	22398.550781
3410.799805	22574.619141
3409.538086	22601.455078
3408.275391	22576.582031
3407.012695	22629.242188
3405.750000	22552.697266
3404.486328	22496.054688
3403.222656	22542.730469
3401.958984	22482.136719
3400.695313	22512.904297
3399.430664	22301.466797
3398.166016	22405.691406
3396.901367	22700.359375
3395.635742	22475.125000
3394.370117	22484.031250
3393.104492	22536.556641
3391.838867	22374.941406
3390.572266	22518.638672
3389.305664	22343.222656
3388.039063	22615.636719
3386.771484	22531.388672
3385.503906	22613.521484
3384.236328	22495.648438
3382.968750	22676.722656
3381.700195	22754.802734
3380.431641	22739.855469
3379.163086	22536.986328
3377.893555	22478.578125
3376.624023	22615.941406
3375.354492	22549.630859
3374.083984	22335.115234
3372.814453	22616.656250
3371.543945	22645.205078
3370.272461	22687.564453
3369.001953	22787.164063
3367.730469	22689.300781
3366.458008	22504.632813
3365.186523	22791.664063
3363.914063	22847.740234
3362.641602	22503.386719
3361.369141	22677.816406
3360.095703	22560.376953
3358.822266	22898.312500
3357.548828	22901.080078
3356.274414	22769.871094
3355.000000	22776.601563
3353.725586	22773.480469
3352.451172	22774.294922
3351.175781	22670.779297
3349.900391	22953.039063
3348.625000	22707.857422
3347.348633	22923.095703
3346.072266	22847.162109
3344.795898	22887.269531
3343.519531	22844.792969
3342.242188	22886.841797
3340.964844	22706.833984
3339.687500	23069.103516
3338.409180	22910.734375
3337.130859	23245.300781
3335.852539	22977.019531
3334.573242	23022.892578
3333.294922	22854.853516
3332.014648	22747.705078
3330.735352	23095.650391
3329.455078	22913.972656
3328.174805	22867.652344
3326.894531	22985.996094
3325.613281	22988.666016
3324.333008	23079.498047
3323.050781	23044.921875
3321.769531	23137.652344
3320.487305	23220.548828
3319.205078	23424.767578
3317.922852	22953.722656
3316.639648	23122.685547
3315.356445	23133.125000
3314.073242	23546.425781
3312.789063	23414.025391
3311.505859	23330.552734
3310.220703	23172.849609
3308.936523	23421.628906
3307.651367	23453.458984
3306.366211	23295.826172
3305.081055	23561.974609
3303.794922	23474.662109
3302.508789	23641.107422
3301.222656	23479.662109
3299.936523	23257.812500
3298.649414	23660.183594
3297.362305	23420.837891
3296.074219	23232.285156
3294.787109	23870.218750
3293.499023	23531.599609
3292.209961	23557.441406
3290.921875	23680.656250
3289.632813	23638.291016
3288.343750	23508.335938
3287.053711	23530.255859
3285.763672	23561.894531
3284.473633	23686.900391
3283.183594	23780.726563
3281.892578	23806.443359
3280.601563	23869.087891
3279.310547	23684.841797
3278.018555	23689.177734
3276.726563	23862.542969
3275.434570	23975.609375
3274.142578	23950.740234
3272.849609	23908.404297
3271.556641	23937.908203
3270.262695	23984.861328
3268.969727	24150.144531
3267.675781	24144.648438
3266.380859	23989.820313
3265.086914	24071.609375
3263.791992	24087.449219
3262.497070	23926.917969
3261.201172	24223.730469
3259.905273	24158.156250
3258.609375	23922.179688
3257.313477	24344.638672
3256.016602	24174.539063
3254.719727	24645.126953
3253.422852	24238.968750
3252.125000	24101.890625
3250.827148	24146.671875
3249.529297	24112.150391
3248.230469	24311.558594
3246.931641	24197.769531
3245.632813	24611.542969
3244.333984	24142.273438
3243.034180	24227.527344
3241.734375	24274.121094
3240.434570	24214.511719
3239.133789	23988.939453
3237.833008	24481.292969
3236.532227	24184.378906
3235.230469	24470.080078
3233.928711	24238.861328
3232.626953	24115.705078
3231.325195	24694.187500
3230.022461	24409.111328
3228.719727	24445.896484
3227.416016	24786.986328
3226.112305	24544.443359
3224.808594	24479.126953
3223.504883	24512.001953
3222.200195	24643.000000
3220.895508	24608.480469
3219.590820	24335.466797
3218.286133	24389.488281
3216.980469	24856.832031
3215.673828	24664.669922
3214.368164	24601.347656
3213.061523	24284.447266
3211.754883	24651.492188
3210.448242	24689.986328
3209.140625	24523.029297
3207.833008	24682.457031
3206.525391	24550.115234
3205.216797	24832.246094
3203.908203	24701.843750
3202.599609	24836.140625
3201.290039	24602.261719
3199.980469	24715.429688
3198.670898	24594.746094
3197.360352	24677.203125
3196.050781	25135.054688
3194.740234	24907.107422
3193.428711	24822.857422
3192.117188	24933.886719
3190.805664	24828.613281
3189.494141	24901.320313
3188.181641	24868.783203
3186.869141	25109.732422
3185.556641	24801.837891
3184.243164	24956.666016
3182.929688	24927.958984
3181.616211	24807.552734
3180.302734	24887.767578
3178.988281	24725.406250
3177.673828	25011.802734
3176.358398	24757.857422
3175.042969	24748.302734
3173.727539	24567.033203
3172.412109	24853.189453
3171.095703	24656.718750
3169.779297	24967.501953
3168.462891	25064.644531
3167.145508	24893.027344
3165.828125	24782.457031
3164.510742	24593.833984
3163.192383	24991.863281
3161.874023	25031.753906
3160.555664	24706.140625
3159.236328	24940.191406
3157.917969	24894.437500
3156.597656	24945.716797
3155.278320	24829.611328
3153.958008	25167.976563
3152.637695	25129.806641
3151.316406	24899.705078
3149.996094	24874.908203
3148.674805	25266.125000
3147.352539	24889.912109
3146.031250	25108.158203
3144.708984	25066.240234
3143.385742	25001.566406
3142.063477	25122.861328
3140.740234	25101.828125
3139.416016	25213.554688
3138.092773	25183.023438
3136.768555	24868.167969
3135.444336	25139.054688
3134.119141	25030.871094
3132.793945	25201.193359
3131.468750	25280.527344
3130.143555	24950.855469
3128.817383	25073.744141
3127.491211	25223.068359
3126.164063	25088.511719
3124.836914	25529.062500
3123.509766	25158.097656
3122.182617	25157.884766
3120.854492	25208.705078
3119.526367	24921.220703
3118.198242	25278.148438
3116.869141	25368.566406
3115.540039	25392.839844
3114.210938	25113.121094
3112.880859	25548.939453
3111.550781	25616.552734
3110.220703	25474.701172
3108.889648	25374.412109
3107.559570	25528.757813
3106.227539	25368.166016
3104.896484	25465.886719
3103.564453	25616.324219
3102.232422	25657.412109
3100.899414	25400.863281
3099.566406	25566.267578
3098.233398	25432.234375
3096.900391	25772.603516
3095.566406	25685.626953
3094.232422	25640.078125
3092.897461	25673.548828
3091.563477	25562.201172
3090.228516	25680.273438
3088.892578	25593.404297
3087.556641	25779.060547
3086.220703	26058.566406
3084.884766	25776.316406
3083.547852	25787.146484
3082.210938	25848.658203
3080.874023	25859.460938
3079.536133	26012.873047
3078.198242	26153.078125
3076.860352	25925.582031
3075.521484	25893.214844
3074.182617	26172.074219
3072.843750	25858.505859
3071.504883	26208.445313
3070.165039	26136.687500
3068.824219	26156.740234
3067.484375	26339.693359
3066.143555	26237.992188
3064.802734	26301.044922
3063.460938	26268.632813
3062.119141	26155.787109
3060.777344	26243.121094
3059.435547	26377.160156
3058.092773	26241.925781
3056.750000	26321.693359
3055.406250	26390.208984
3054.062500	26581.986328
3052.718750	26732.582031
3051.375000	26369.603516
3050.030273	26458.564453
3048.685547	26528.818359
3047.339844	26544.923828
3045.995117	26133.818359
3044.649414	26217.146484
3043.302734	26677.083984
3041.956055	26594.326172
3040.609375	26828.439453
3039.262695	26732.636719
3037.915039	26739.332031
3036.567383	26675.250000
3035.219727	26659.607422
3033.871094	26621.630859
3032.522461	26713.943359
3031.173828	26532.697266
3029.824219	26571.037109
3028.474609	26986.884766
3027.124023	26690.417969
3025.774414	26756.566406
3024.423828	26623.830078
3023.072266	26929.638672
3021.721680	26601.875000
3020.370117	26766.396484
3019.017578	26854.714844
3017.666016	26885.445313
3016.313477	26884.609375
3014.959961	26842.955078
3013.607422	26851.398438
3012.253906	26765.259766
3010.899414	26920.177734
3009.545898	26936.001953
3008.191406	26994.439453
3006.835938	26821.259766
3005.481445	26927.847656
3004.125977	26645.503906
3002.770508	27051.998047
3001.414063	26997.416016
3000.057617	26883.642578
2998.701172	26827.271484
2997.343750	26881.900391
2995.986328	26966.085938
2994.628906	26957.792969
2993.270508	27023.431641
2991.912109	26617.843750
2990.553711	26877.500000
2989.194336	26832.287109
2987.834961	26923.732422
2986.475586	26839.755859
2985.115234	27136.013672
2983.754883	27129.517578
2982.394531	26958.841797
2981.034180	27066.730469
2979.672852	27346.044922
2978.310547	26954.222656
2976.949219	27273.966797
2975.586914	27138.453125
2974.223633	27185.369141
2972.861328	27248.832031
2971.498047	27205.474609
2970.134766	27268.896484
2968.770508	26943.980469
2967.406250	27150.939453
2966.041992	27251.109375
2964.676758	27402.720703
2963.311523	27302.375000
2961.946289	27312.359375
2960.580078	27324.175781
2959.213867	27589.519531
2957.847656	27375.333984
2956.480469	27541.369141
2955.113281	27360.337891
2953.746094	27618.062500
2952.377930	27657.296875
2951.009766	27839.603516
2949.641602	27827.402344
2948.272461	27675.843750
2946.903320	27982.667969
2945.534180	27856.798828
2944.164063	28035.158203
2942.793945	27768.273438
2941.423828	27909.933594
2940.052734	27914.195313
2938.681641	28158.259766
2937.309570	28202.716797
2935.938477	28124.556641
2934.566406	28317.166016
2933.193359	28474.931641
2931.821289	28341.902344
2930.447266	28466.675781
2929.074219	28478.080078
2927.700195	28410.912109
2926.326172	28226.871094
2924.952148	28369.800781
2923.577148	28216.888672
2922.202148	28726.632813
2920.826172	28451.437500
2919.451172	28260.294922
2918.074219	28534.355469
2916.698242	28691.576172
2915.321289	28334.601563
2913.944336	28548.289063
2912.567383	28710.849609
2911.189453	28731.228516
2909.810547	28624.101563
2908.432617	28842.962891
2907.053711	28868.748047
2905.674805	28737.996094
2904.294922	28509.048828
2902.915039	28856.873047
2901.535156	28984.462891
2900.155273	28922.890625
2898.774414	28794.085938
2897.392578	29059.710938
2896.011719	29232.539063
2894.629883	28989.306641
2893.248047	29038.570313
2891.865234	28998.843750
2890.482422	29342.132813
2889.099609	29079.134766
2887.715820	29224.474609
2886.332031	29043.250000
2884.948242	29475.039063
2883.563477	29699.937500
2882.178711	29322.966797
2880.792969	29312.216797
2879.408203	29194.582031
2878.022461	29160.316406
2876.635742	29209.359375
2875.249023	29318.117188
2873.862305	29421.386719
2872.475586	29620.505859
2871.087891	29540.937500
2869.700195	29298.634766
2868.311523	29419.878906
2866.923828	29271.716797
2865.534180	29360.371094
2864.145508	29273.720703
2862.755859	29374.970703
2861.366211	29476.167969
2859.975586	29344.406250
2858.584961	29499.705078
2857.194336	29375.214844
2855.802734	29393.310547
2854.411133	29487.148438
2853.019531	29552.085938
2851.626953	29606.171875
2850.234375	29573.712891
2848.841797	29674.613281
2847.448242	29525.048828
2846.054688	29335.929688
2844.661133	29586.255859
2843.266602	29483.619141
2841.872070	29677.988281
2840.476563	29231.703125
2839.082031	29539.361328
2837.686523	29300.142578
2836.290039	29127.562500
2834.893555	29372.097656
2833.497070	29334.363281
2832.099609	29158.298828
2830.703125	29002.076172
2829.304688	29364.914063
2827.907227	29023.789063
2826.508789	28838.986328
2825.109375	28970.101563
2823.710938	28986.328125
2822.311523	29226.744141
2820.911133	29257.240234
2819.511719	29278.755859
2818.111328	29255.449219
2816.709961	29223.191406
2815.308594	28895.365234
2813.907227	29346.767578
2812.505859	29588.453125
2811.103516	28961.824219
2809.701172	29409.289063
2808.297852	29351.974609
2806.894531	29446.728516
2805.491211	29359.025391
2804.087891	29580.667969
2802.683594	29607.365234
2801.278320	29448.195313
2799.874023	29616.046875
2798.468750	29623.058594
2797.062500	29460.421875
2795.657227	29506.738281
2794.250977	29565.523438
2792.843750	29433.347656
2791.437500	29479.626953
2790.029297	29786.271484
2788.622070	29317.130859
2787.213867	29573.744141
2785.805664	29832.011719
2784.396484	29813.978516
2782.988281	29861.859375
2781.578125	29669.294922
2780.168945	29986.027344
2778.758789	29576.361328
2777.347656	29878.718750
2775.937500	29757.492188
2774.526367	29903.125000
2773.114258	30199.832031
2771.703125	29680.378906
2770.290039	29822.359375
2768.877930	30157.951172
2767.464844	30212.687500
2766.051758	30244.306641
2764.637695	30354.035156
2763.224609	30311.039063
2761.809570	30317.755859
2760.395508	30159.455078
2758.980469	30221.187500
2757.564453	30164.068359
2756.149414	30151.298828
2754.733398	30431.000000
2753.316406	30634.361328
2751.900391	30391.158203
2750.483398	30537.744141
2749.065430	30494.777344
2747.647461	30883.794922
2746.229492	30630.138672
2744.811523	30705.728516
2743.392578	30839.654297
2741.972656	30771.890625
2740.553711	30746.593750
2739.133789	30650.595703
2737.712891	30846.246094
2736.292969	30875.712891
2734.872070	30804.474609
2733.450195	30637.906250
2732.028320	31064.638672
2730.606445	31104.599609
2729.184570	31204.535156
2727.761719	30972.744141
2726.338867	30730.480469
2724.915039	31047.318359
2723.491211	30942.658203
2722.067383	31033.681641
2720.642578	31334.339844
2719.217773	30840.363281
2717.792969	30929.574219
2716.367188	31059.234375
2714.941406	31429.986328
2713.514648	31411.623047
2712.088867	31185.654297
2710.661133	31065.333984
2709.234375	31349.535156
2707.806641	31387.457031
2706.378906	31397.234375
2704.950195	31464.992188
2703.521484	31495.820313
2702.091797	31205.216797
2700.663086	31492.451172
2699.233398	31639.101563
2697.802734	31778.656250
2696.372070	31563.705078
2694.941406	31499.718750
2693.509766	31595.349609
2692.078125	31853.988281
2690.646484	31683.041016
2689.214844	31503.414063
2687.781250	31777.640625
2686.348633	31671.638672
2684.915039	31758.308594
2683.481445	31603.337891
2682.047852	31898.255859
2680.613281	31904.304688
2679.178711	31737.158203
2677.743164	31827.187500
2676.307617	32214.412109
2674.872070	32073.525391
2673.435547	31768.427734
2671.999023	32129.160156
2670.561523	32016.337891
2669.125000	32041.527344
2667.686523	32075.431641
2666.249023	32215.789063
2664.810547	32268.820313
2663.372070	31934.525391
2661.932617	32064.337891
2660.493164	32040.634766
2659.053711	32131.996094
2657.613281	32195.423828
2656.172852	32046.242188
2654.731445	32141.007813
2653.291016	32232.240234
2651.848633	32180.654297
2650.407227	32371.041016
2648.964844	32481.281250
2647.521484	32274.820313
2646.079102	32207.607422
2644.635742	32629.060547
2643.191406	32356.644531
2641.747070	32550.158203
2640.302734	32922.546875
2638.858398	32823.968750
2637.413086	32730.650391
2635.967773	32819.683594
2634.521484	32787.160156
2633.075195	32822.332031
2631.627930	32631.933594
2630.181641	33007.093750
2628.733398	32997.085938
2627.286133	32962.808594
2625.837891	33093.203125
2624.389648	33036.386719
2622.940430	33066.210938
2621.491211	33270.949219
2620.041992	33302.425781
2618.591797	33477.566406
2617.141602	33432.820313
2615.690430	33533.429688
2614.240234	33490.417969
2612.788086	33335.011719
2611.336914	33402.714844
2609.884766	33226.660156
2608.431641	33379.023438
2606.979492	33607.320313
2605.525391	33393.339844
2604.072266	33695.765625
2602.618164	33657.945313
2601.164063	33646.035156
2599.708984	33292.484375
2598.253906	33344.488281
2596.798828	33884.519531
2595.342773	33663.925781
2593.886719	33858.851563
2592.430664	33795.187500
2590.973633	33550.656250
2589.516602	33804.015625
2588.058594	34019.363281
2586.600586	34232.878906
2585.142578	33880.035156
2583.683594	33904.195313
2582.224609	33838.886719
2580.764648	33752.972656
2579.304688	33962.828125
2577.844727	33992.085938
2576.383789	34090.066406
2574.923828	33864.996094
2573.461914	34088.339844
2572.000000	33974.996094
2570.538086	33884.023438
2569.076172	34210.164063
2567.613281	34206.679688
2566.150391	34059.097656
2564.686523	34055.648438
2563.222656	34338.539063
2561.758789	34477.289063
2560.293945	34285.214844
2558.829102	34560.968750
2557.363281	34423.777344
2555.897461	34064.031250
2554.431641	34247.171875
2552.964844	34491.835938
2551.498047	34496.808594
2550.031250	34813.128906
2548.563477	34658.957031
2547.095703	34585.218750
2545.626953	34861.949219
2544.158203	34624.132813
2542.689453	34183.109375
2541.219727	34589.539063
2539.750000	34871.097656
2538.280273	34817.886719
2536.809570	34551.347656
2535.337891	34523.832031
2533.867188	34738.574219
2532.395508	34526.824219
2530.922852	34719.285156
2529.451172	34768.453125
2527.978516	35006.761719
2526.504883	34810.476563
2525.031250	34713.085938
2523.557617	34864.367188
2522.083008	34969.601563
2520.608398	35158.179688
2519.133789	35036.960938
2517.658203	35223.718750
2516.182617	35151.859375
2514.706055	35154.847656
2513.229492	35253.031250
2511.752930	35288.273438
2510.275391	35044.851563
2508.797852	35350.210938
2507.319336	35264.820313
2505.840820	35347.550781
2504.362305	35647.496094
2502.882813	35524.753906
2501.403320	35503.859375
2499.923828	35235.351563
2498.443359	35511.265625
2496.962891	35525.980469
2495.481445	35500.007813
2494.000000	35677.363281
2492.518555	35654.746094
2491.036133	35638.914063
2489.553711	35570.597656
2488.071289	35793.445313
2486.587891	36022.941406
2485.103516	35685.582031
2483.620117	35774.605469
2482.135742	35894.015625
2480.650391	35824.027344
2479.165039	35794.632813
2477.679688	36272.128906
2476.194336	36411.546875
2474.708008	36083.109375
2473.220703	36203.921875
2471.733398	36311.171875
2470.246094	36119.679688
2468.758789	36215.078125
2467.270508	36295.246094
2465.782227	36346.703125
2464.292969	36052.554688
2462.803711	36454.582031
2461.313477	36645.792969
2459.823242	36535.386719
2458.333008	36581.648438
2456.841797	36664.921875
2455.350586	36852.500000
2453.859375	36572.187500
2452.367188	36530.898438
2450.875000	36669.585938
2449.381836	36752.710938
2447.888672	37136.687500
2446.395508	36702.027344
2444.901367	36801.871094
2443.407227	37210.730469
2441.912109	36806.601563
2440.417969	37280.714844
2438.921875	37224.203125
2437.425781	37155.968750
2435.929688	37169.964844
2434.433594	37294.644531
2432.936523	37109.062500
2431.439453	37181.718750
2429.941406	37028.093750
2428.443359	37110.781250
2426.944336	37419.546875
2425.446289	37173.867188
2423.946289	37464.039063
2422.447266	37456.132813
2420.947266	37056.679688
2419.446289	37661.144531
2417.945313	37564.542969
2416.444336	37360.984375
2414.942383	37445.035156
2413.440430	37647.687500
2411.938477	37507.738281
2410.435547	37529.875000
2408.932617	37628.812500
2407.429688	37514.003906
2405.925781	37390.906250
2404.420898	37503.140625
2402.916016	37667.023438
2401.411133	37724.085938
2399.906250	37742.765625
2398.400391	37756.433594
2396.893555	38018.390625
2395.387695	38050.300781
2393.880859	37948.941406
2392.373047	37919.234375
2390.865234	37768.011719
2389.357422	38244.308594
2387.848633	38217.863281
2386.339844	38071.660156
2384.830078	37925.527344
2383.320313	38203.429688
2381.810547	38120.492188
2380.299805	37844.832031
2378.789063	38253.777344
2377.278320	38157.593750
2375.766602	38212.558594
2374.254883	38382.035156
2372.742188	37998.765625
2371.229492	38115.109375
2369.715820	38375.703125
2368.203125	38646.109375
2366.688477	38624.578125
2365.174805	38492.000000
2363.660156	38710.789063
2362.144531	38627.949219
2360.628906	38487.183594
2359.113281	38977.339844
2357.596680	38853.101563
2356.080078	38553.500000
2354.563477	39266.613281
2353.045898	38670.968750
2351.528320	38665.984375
2350.009766	38679.187500
2348.491211	38811.378906
2346.971680	38885.667969
2345.452148	38532.054688
2343.932617	39106.785156
2342.413086	39230.464844
2340.891602	38787.886719
2339.371094	38886.820313
2337.849609	38817.417969
2336.328125	39031.742188
2334.805664	39158.558594
2333.283203	39196.285156
2331.760742	39187.839844
2330.237305	39410.074219
2328.712891	39353.796875
2327.189453	39361.773438
2325.665039	39203.453125
2324.139648	39308.570313
2322.614258	39306.667969
2321.088867	39260.343750
2319.562500	39388.382813
2318.036133	39452.222656
2316.509766	39545.617188
2314.982422	39627.453125
2313.455078	40027.996094
2311.926758	39475.605469
2310.398438	39563.957031
2308.869141	39604.644531
2307.339844	39835.703125
2305.810547	39914.035156
2304.280273	39567.429688
2302.750000	39598.222656
2301.218750	39927.410156
2299.688477	39707.281250
2298.156250	40118.203125
2296.624023	39382.039063
2295.091797	40048.347656
2293.559570	39792.375000
2292.026367	39692.054688
2290.492188	39742.359375
2288.958984	39967.714844
2287.423828	39908.312500
2285.889648	39876.738281
2284.354492	39802.667969
2282.818359	39975.453125
2281.283203	39870.339844
2279.746094	40137.765625
2278.209961	40022.855469
2276.672852	39973.316406
2275.134766	40387.421875
2273.596680	40251.308594
2272.058594	40017.363281
2270.519531	40054.316406
2268.980469	40207.035156
2267.441406	40540.636719
2265.901367	40301.953125
2264.361328	40501.730469
2262.820313	40663.933594
2261.279297	40672.949219
2259.737305	40406.785156
2258.195313	40430.507813
2256.653320	40581.152344
2255.110352	40728.460938
2253.567383	40634.957031
2252.024414	40847.214844
2250.480469	41148.773438
2248.935547	41123.484375
2247.390625	40945.464844
2245.845703	41098.925781
2244.300781	40830.050781
2242.754883	40941.238281
2241.208008	41101.062500
2239.661133	40827.515625
2238.114258	40924.007813
2236.566406	41114.515625
2235.018555	41433.023438
2233.470703	41049.425781
2231.921875	41217.050781
2230.373047	41097.800781
2228.823242	41309.058594
2227.273438	41492.667969
2225.722656	41196.957031
2224.171875	41330.320313
2222.621094	41560.699219
2221.069336	41700.359375
2219.517578	41666.894531
2217.964844	41795.128906
2216.412109	41755.179688
2214.859375	41703.933594
2213.305664	41828.820313
2211.751953	41982.707031
2210.197266	41891.062500
2208.642578	42060.988281
2207.086914	42516.496094
2205.531250	42105.289063
2203.975586	42036.277344
2202.418945	42247.906250
2200.862305	42112.777344
2199.305664	42625.687500
2197.748047	42424.457031
2196.189453	42313.542969
2194.630859	42226.843750
2193.072266	42460.609375
2191.512695	42552.593750
2189.953125	42591.414063
2188.393555	42607.687500
2186.833008	42862.007813
2185.272461	43072.773438
2183.710938	42955.460938
2182.149414	43141.972656
2180.586914	43214.300781
2179.024414	42872.132813
2177.461914	43236.777344
2175.898438	43231.945313
2174.334961	43008.808594
2172.770508	43167.710938
2171.206055	43207.808594
2169.641602	43278.355469
2168.076172	43350.468750
2166.509766	43239.785156
2164.944336	43226.917969
2163.377930	43613.011719
2161.810547	43595.242188
2160.243164	43354.882813
2158.675781	43165.871094
2157.107422	43359.496094
2155.538086	43729.031250
2153.969727	43752.828125
2152.400391	43811.789063
2150.830078	43589.312500
2149.259766	43534.789063
2147.689453	43945.324219
2146.118164	43686.230469
2144.546875	43350.597656
2142.974609	43926.917969
2141.402344	43985.699219
