#Wave		#Intensity
3550.405273	34158.824219
3549.173828	33930.609375
3547.941406	34116.902344
3546.708984	33848.917969
3545.476563	33790.781250
3544.243164	34180.562500
3543.010742	33892.367188
3541.777344	33585.976563
3540.542969	33698.835938
3539.309570	34004.890625
3538.075195	34198.953125
3536.840820	34045.238281
3535.605469	33948.507813
3534.371094	33868.070313
3533.135742	33873.007813
3531.900391	33912.476563
3530.664063	33976.296875
3529.428711	33934.492188
3528.192383	34304.839844
3526.955078	34074.203125
3525.718750	34024.273438
3524.481445	33712.628906
3523.244141	33924.468750
3522.006836	34266.007813
3520.768555	33926.113281
3519.530273	34318.179688
3518.291992	34120.285156
3517.053711	34056.210938
3515.814453	34460.136719
3514.575195	34367.652344
3513.335938	34196.230469
3512.095703	34567.460938
3510.855469	34313.070313
3509.615234	34143.781250
3508.375000	34504.652344
3507.133789	34398.097656
3505.892578	34429.101563
3504.651367	34563.210938
3503.410156	34214.117188
3502.167969	34414.902344
3500.925781	34492.335938
3499.683594	34377.816406
3498.440430	34422.902344
3497.197266	34201.414063
3495.954102	34902.648438
3494.710938	34642.792969
3493.466797	34841.136719
3492.222656	34506.750000
3490.978516	34630.394531
3489.734375	34766.082031
3488.489258	34911.789063
3487.244141	34791.335938
3485.999023	34977.273438
3484.752930	35177.230469
3483.506836	34998.367188
3482.260742	34847.777344
3481.014648	34954.992188
3479.767578	35072.222656
3478.520508	34957.929688
3477.273438	35185.781250
3476.025391	35216.363281
3474.777344	34973.367188
3473.529297	34955.707031
3472.281250	35032.550781
3471.032227	35175.691406
3469.784180	35123.824219
3468.534180	35059.917969
3467.285156	35132.640625
3466.035156	35251.515625
3464.785156	34808.109375
3463.535156	35416.832031
3462.284180	35328.828125
3461.033203	35078.320313
3459.782227	34888.101563
3458.531250	35059.003906
3457.279297	35217.796875
3456.027344	35432.652344
3454.775391	35475.023438
3453.522461	35314.968750
3452.270508	35621.816406
3451.016602	35075.179688
3449.763672	35159.636719
3448.509766	35352.175781
3447.255859	35362.457031
3446.001953	35316.691406
3444.748047	35132.875000
3443.493164	35567.296875
3442.238281	35931.523438
3440.983398	35285.761719
3439.727539	35729.847656
3438.471680	35696.031250
3437.215820	35710.183594
3435.958984	35370.699219
3434.703125	35562.683594
3433.446289	35375.148438
3432.188477	35782.667969
3430.931641	35409.515625
3429.673828	35471.585938
3428.416016	35671.296875
3427.157227	35571.695313
3425.898438	35460.164063
3424.639648	35693.632813
3423.380859	35667.835938
3422.121094	35659.988281
3420.862305	35755.753906
3419.601563	35470.964844
3418.341797	35714.113281
3417.081055	35672.390625
3415.820313	35748.144531
3414.559570	35547.191406
3413.297852	35575.171875
3412.036133	35672.773438
3410.774414	35857.843750
3409.512695	35913.566406
3408.250000	35686.929688
3406.987305	35840.062500
3405.724609	35645.332031
3404.460938	35573.875000
3403.197266	35524.292969
3401.933594	35548.214844
3400.669922	35552.265625
3399.405273	35453.082031
3398.140625	35550.429688
3396.875977	35989.023438
3395.610352	35500.964844
3394.344727	36012.753906
3393.079102	35800.527344
3391.813477	35733.117188
3390.546875	35679.609375
3389.280273	35628.101563
3388.013672	35568.687500
3386.746094	35576.640625
3385.478516	35649.937500
3384.210938	35523.230469
3382.943359	35946.863281
3381.674805	35830.031250
3380.406250	35897.257813
3379.136719	35837.847656
3377.868164	35996.007813
3376.598633	35602.437500
3375.329102	35663.707031
3374.058594	35802.023438
3372.789063	35481.855469
3371.517578	35501.613281
3370.247070	35693.187500
3368.975586	35941.937500
3367.705078	35829.296875
3366.432617	35641.703125
3365.161133	35700.847656
3363.888672	35761.937500
3362.616211	35592.218750
3361.343750	35927.402344
3360.070313	35611.824219
3358.796875	35710.312500
3357.523438	35848.164063
3356.249023	35654.957031
3354.974609	35865.636719
3353.700195	35991.535156
3352.425781	35595.617188
3351.150391	35971.503906
3349.875000	35437.996094
3348.599609	35762.585938
3347.323242	36006.375000
3346.046875	36069.117188
3344.770508	35994.183594
3343.494141	36007.746094
3342.216797	35850.308594
3340.939453	36062.347656
3339.661133	36358.757813
3338.383789	35916.550781
3337.105469	35945.800781
3335.827148	35977.000000
3334.547852	35709.843750
3333.268555	35752.847656
3331.989258	36076.371094
3330.709961	36213.410156
3329.429688	35869.949219
3328.149414	36408.871094
3326.869141	36216.441406
3325.587891	36127.949219
3324.306641	36370.601563
3323.025391	36289.945313
3321.744141	36123.152344
3320.461914	36289.273438
3319.179688	36684.332031
3317.896484	36625.187500
3316.614258	36440.847656
3315.331055	36448.285156
3314.047852	36733.417969
3312.763672	36633.238281
3311.479492	36761.812500
3310.195313	36673.390625
3308.911133	36661.207031
3307.625977	36719.347656
3306.340820	36779.414063
3305.054688	36919.503906
3303.769531	36913.117188
3302.483398	37027.730469
3301.197266	36742.281250
3299.910156	36763.238281
3298.623047	36854.394531
3297.335938	36968.902344
3296.048828	36911.800781
3294.760742	37059.371094
3293.472656	37017.855469
3292.184570	36939.335938
3290.895508	37016.667969
3289.606445	37033.597656
3288.317383	37005.734375
3287.028320	36972.042969
3285.738281	37358.691406
3284.448242	37433.875000
3283.157227	37298.949219
3281.867188	37272.984375
3280.576172	37289.796875
3279.284180	37450.437500
3277.993164	37230.109375
3276.701172	37524.742188
3275.409180	37316.144531
3274.116211	37754.320313
3272.823242	37561.289063
3271.530273	37506.160156
3270.237305	37561.671875
3268.943359	37688.941406
3267.649414	37492.203125
3266.355469	37989.835938
3265.060547	37692.289063
3263.765625	37819.398438
3262.470703	37481.316406
3261.174805	37685.910156
3259.879883	37632.765625
3258.583008	37674.539063
3257.287109	37975.746094
3255.990234	37928.367188
3254.693359	38016.480469
3253.396484	37907.187500
3252.098633	37964.304688
3250.800781	38191.585938
3249.502930	38335.617188
3248.205078	38069.750000
3246.906250	38231.128906
3245.607422	38469.718750
3244.307617	37885.234375
3243.007813	38058.121094
3241.708008	38101.550781
3240.408203	38392.058594
3239.107422	38182.546875
3237.806641	38183.453125
3236.505859	38080.175781
3235.204102	38046.378906
3233.902344	38446.460938
3232.600586	38279.566406
3231.298828	38238.023438
3229.996094	38186.863281
3228.693359	38106.824219
3227.389648	38132.750000
3226.086914	38480.242188
3224.783203	38559.968750
3223.478516	38349.015625
3222.173828	38394.089844
3220.870117	38341.023438
3219.564453	38788.066406
3218.259766	38200.332031
3216.954102	38583.750000
3215.648438	38624.851563
3214.341797	38546.789063
3213.035156	38582.109375
3211.728516	38454.140625
3210.421875	38335.832031
3209.114258	38388.441406
3207.806641	38686.714844
3206.499023	38483.980469
3205.190430	38789.761719
3203.881836	38376.093750
3202.573242	38792.976563
3201.263672	38830.042969
3199.954102	38495.230469
3198.644531	38494.015625
3197.333984	38418.078125
3196.024414	38476.250000
3194.713867	38339.062500
3193.402344	38866.292969
3192.090820	38767.351563
3190.779297	38693.328125
3189.467773	38753.265625
3188.155273	38637.187500
3186.842773	38658.851563
3185.530273	38607.851563
3184.216797	38621.855469
3182.903320	38651.140625
3181.589844	38707.156250
3180.276367	38344.816406
3178.961914	38565.105469
3177.646484	38930.390625
3176.332031	38499.519531
3175.016602	38797.851563
3173.701172	38769.777344
3172.385742	38385.007813
3171.069336	38671.703125
3169.752930	38649.386719
3168.436523	38720.480469
3167.119141	38438.972656
3165.801758	38586.285156
3164.484375	39144.976563
3163.166016	38897.835938
3161.847656	38789.792969
3160.529297	38655.144531
3159.209961	38707.062500
3157.890625	38639.082031
3156.571289	38628.195313
3155.251953	38381.492188
3153.931641	38899.230469
3152.611328	39116.382813
3151.290039	38826.015625
3149.968750	38545.277344
3148.647461	39201.148438
3147.326172	38806.496094
3146.003906	38928.464844
3144.681641	38725.773438
3143.359375	38993.824219
3142.036133	38485.734375
3140.712891	38888.386719
3139.389648	38604.332031
3138.065430	38836.117188
3136.742188	39227.023438
3135.416992	38855.898438
3134.092773	39509.968750
3132.767578	39190.085938
3131.442383	38985.871094
3130.116211	38832.867188
3128.790039	38795.398438
3127.463867	38932.050781
3126.137695	39036.472656
3124.810547	39129.488281
3123.483398	39322.691406
3122.156250	39213.281250
3120.828125	39198.437500
3119.500000	39219.500000
3118.170898	38949.582031
3116.842773	39159.578125
3115.513672	39309.039063
3114.183594	39239.414063
3112.854492	39328.375000
3111.524414	39534.292969
3110.194336	39485.402344
3108.863281	39696.839844
3107.532227	38999.195313
3106.201172	39484.019531
3104.869141	39327.730469
3103.537109	39359.957031
3102.205078	39578.687500
3100.873047	39900.914063
3099.540039	39727.703125
3098.207031	39483.027344
3096.873047	39385.281250
3095.539063	39863.425781
3094.205078	39756.222656
3092.871094	39628.371094
3091.536133	39504.339844
3090.201172	39711.253906
3088.866211	39598.531250
3087.530273	39833.507813
3086.194336	40282.546875
3084.857422	40105.890625
3083.521484	39626.976563
3082.184570	39856.074219
3080.846680	40053.152344
3079.509766	40205.097656
3078.171875	40128.078125
3076.833008	39820.386719
3075.495117	40051.023438
3074.156250	40264.675781
3072.817383	40208.316406
3071.477539	40230.683594
3070.137695	40429.140625
3068.797852	40116.164063
3067.457031	40365.105469
3066.116211	40645.750000
3064.775391	40602.457031
3063.434570	40531.109375
3062.092773	40366.253906
3060.750977	40192.117188
3059.408203	40564.078125
3058.065430	40440.445313
3056.722656	40341.164063
3055.378906	40669.832031
3054.036133	40888.121094
3052.691406	40607.621094
3051.347656	40448.625000
3050.002930	40726.535156
3048.658203	40455.593750
3047.313477	40789.339844
3045.967773	40844.964844
3044.622070	40824.093750
3043.275391	40974.769531
3041.929688	40909.125000
3040.582031	40834.191406
3039.235352	40874.812500
3037.887695	40649.023438
3036.540039	41039.789063
3035.192383	41003.976563
3033.843750	40804.363281
3032.495117	41124.082031
3031.146484	40736.605469
3029.796875	41180.808594
3028.447266	40802.792969
3027.097656	40858.167969
3025.747070	41019.468750
3024.396484	41258.738281
3023.044922	41213.621094
3021.694336	40815.589844
3020.342773	41047.300781
3018.990234	40905.707031
3017.638672	41146.554688
3016.286133	40986.437500
3014.932617	40805.984375
3013.580078	41104.175781
3012.226563	41005.367188
3010.872070	40771.257813
3009.518555	41072.937500
3008.164063	40890.800781
3006.808594	40562.390625
3005.454102	41134.312500
3004.098633	41131.906250
3002.743164	41027.671875
3001.386719	40677.308594
3000.030273	40730.515625
2998.673828	40937.238281
2997.316406	41158.656250
2995.958984	41015.687500
2994.601563	41042.859375
2993.243164	41020.113281
2991.884766	40982.589844
2990.526367	40998.652344
2989.166992	41214.171875
2987.807617	41100.910156
2986.448242	40616.640625
2985.087891	41310.093750
2983.727539	41159.976563
2982.367188	41035.750000
2981.005859	41036.988281
2979.644531	41218.917969
2978.283203	41061.570313
2976.921875	41213.910156
2975.559570	41476.722656
2974.196289	41229.156250
2972.833984	41609.695313
2971.470703	41450.578125
2970.106445	41517.949219
2968.743164	41073.675781
2967.378906	41174.210938
2966.013672	40870.019531
2964.649414	41338.343750
2963.284180	41591.328125
2961.917969	41695.300781
2960.552734	41334.292969
2959.186523	41348.246094
2957.819336	41406.269531
2956.453125	41073.125000
2955.085938	41478.160156
2953.717773	41433.312500
2952.350586	41682.082031
2950.982422	41547.304688
2949.613281	41707.878906
2948.245117	41758.355469
2946.875977	41665.808594
2945.505859	41712.593750
2944.136719	41982.898438
2942.766602	42013.085938
2941.395508	42026.773438
2940.025391	41932.421875
2938.654297	41947.945313
2937.282227	41848.156250
2935.910156	42169.242188
2934.538086	42537.730469
2933.166016	42419.570313
2931.792969	42383.738281
2930.419922	42532.542969
2929.046875	42248.152344
2927.672852	42424.312500
2926.298828	42596.734375
2924.923828	42825.675781
2923.549805	42477.570313
2922.173828	42843.320313
2920.798828	42646.832031
2919.422852	42525.234375
2918.046875	42593.386719
2916.670898	42665.144531
2915.293945	42833.492188
2913.916992	42835.890625
2912.539063	42481.128906
2911.161133	42931.757813
2909.783203	42653.632813
2908.404297	42850.886719
2907.026367	43037.121094
2905.646484	42868.359375
2904.267578	43194.593750
2902.887695	43162.300781
2901.507813	43162.753906
2900.126953	43354.117188
2898.746094	43358.148438
2897.365234	43476.671875
2895.983398	43391.632813
2894.601563	43421.070313
2893.219727	43635.726563
2891.836914	43801.250000
2890.454102	43224.292969
2889.071289	43435.195313
2887.687500	43373.851563
2886.303711	43194.632813
2884.919922	43305.640625
2883.535156	43291.492188
2882.150391	43377.039063
2880.765625	43587.570313
2879.379883	43272.621094
2877.994141	43575.437500
2876.608398	43340.308594
2875.221680	43820.359375
2873.834961	43483.925781
2872.447266	43925.703125
2871.059570	43743.160156
2869.671875	43795.812500
2868.284180	43504.894531
2866.895508	43872.101563
2865.506836	43651.781250
2864.117188	43753.167969
2862.727539	43688.320313
2861.337891	43735.460938
2859.947266	43385.375000
2858.556641	43275.523438
2857.166016	43618.671875
2855.775391	43810.097656
2854.383789	43947.316406
2852.991211	43648.074219
2851.599609	43725.761719
2850.207031	43877.304688
2848.813477	43668.382813
2847.419922	43800.039063
2846.026367	43576.820313
2844.632813	43764.246094
2843.238281	43623.941406
2841.843750	43307.328125
2840.449219	43760.964844
2839.053711	43582.976563
2837.658203	43514.773438
2836.261719	43552.679688
2834.865234	43473.722656
2833.468750	43197.117188
2832.072266	43438.082031
2830.674805	43438.230469
2829.276367	43544.328125
2827.878906	43643.183594
2826.480469	43596.601563
2825.082031	43551.832031
2823.682617	43499.902344
2822.283203	43281.191406
2820.882813	43387.144531
2819.483398	43666.929688
2818.083008	43197.406250
2816.681641	43774.539063
2815.281250	43362.535156
2813.878906	43194.296875
2812.477539	43668.933594
2811.075195	43461.312500
2809.672852	43638.558594
2808.269531	43112.562500
2806.866211	43581.367188
2805.462891	43624.320313
2804.059570	43745.910156
2802.655273	43511.738281
2801.250000	43813.777344
2799.845703	43522.519531
2798.440430	43808.324219
2797.034180	43651.132813
2795.628906	43618.980469
2794.222656	43886.687500
2792.815430	43877.679688
2791.408203	44075.609375
2790.000977	43996.996094
2788.593750	43713.363281
2787.185547	43625.953125
2785.777344	43590.265625
2784.368164	44146.128906
2782.958984	43795.031250
2781.549805	43871.511719
2780.140625	44056.554688
2778.730469	44143.601563
2777.319336	44266.191406
2775.909180	43947.496094
2774.497070	44392.003906
2773.085938	44299.261719
2771.673828	44185.230469
2770.261719	44640.000000
2768.849609	44350.015625
2767.436523	44299.992188
2766.023438	44745.503906
2764.609375	44583.539063
2763.195313	44290.285156
2761.781250	44827.738281
2760.367188	44486.656250
2758.952148	44892.523438
2757.536133	44562.222656
2756.121094	44694.824219
2754.705078	44437.402344
2753.288086	44791.472656
2751.871094	45083.355469
2750.454102	45066.898438
2749.037109	44772.429688
2747.619141	44982.652344
2746.201172	44798.078125
2744.782227	44990.484375
2743.363281	44897.976563
2741.944336	45017.742188
2740.524414	45399.132813
2739.104492	45211.125000
2737.684570	45261.785156
2736.263672	44821.234375
2734.842773	45308.261719
2733.421875	45228.164063
2732.000000	45658.343750
2730.578125	45331.078125
2729.155273	45672.773438
2727.733398	45634.988281
2726.309570	45288.558594
2724.886719	45264.984375
2723.462891	45239.656250
2722.038086	45669.050781
2720.614258	45754.632813
2719.189453	45554.789063
2717.763672	45184.210938
2716.338867	45496.968750
2714.912109	45846.531250
2713.486328	45824.589844
2712.059570	45538.742188
2710.632813	45694.531250
2709.205078	46034.886719
2707.777344	45638.429688
2706.349609	45669.269531
2704.920898	45710.636719
2703.492188	45653.597656
2702.063477	45642.246094
2700.633789	45704.644531
2699.204102	45958.355469
2697.774414	45750.359375
2696.343750	45556.500000
2694.912109	46018.789063
2693.481445	45484.726563
2692.049805	45694.320313
2690.618164	45554.984375
2689.185547	46057.101563
2687.752930	45784.585938
2686.319336	45752.164063
2684.886719	45851.085938
2683.453125	46076.003906
2682.018555	46216.792969
2680.583984	46152.781250
2679.149414	45941.847656
2677.713867	45881.421875
2676.278320	46181.214844
2674.842773	46243.117188
2673.406250	46039.343750
2671.969727	46403.500000
2670.533203	46294.105469
2669.095703	46217.937500
2667.658203	46087.683594
2666.219727	46648.683594
2664.781250	46392.734375
2663.342773	46201.460938
2661.903320	46296.312500
2660.463867	45960.421875
2659.024414	46041.332031
2657.583984	46467.277344
2656.143555	46149.000000
2654.703125	46290.757813
2653.261719	46214.750000
2651.820313	46478.285156
2650.377930	46517.140625
2648.935547	46688.230469
2647.493164	46627.835938
2646.049805	46501.375000
2644.606445	46521.039063
2643.162109	46272.964844
2641.718750	46383.042969
2640.273438	46804.093750
2638.829102	46894.867188
2637.383789	46900.492188
2635.938477	46735.949219
2634.492188	46831.867188
2633.045898	47182.835938
2631.598633	46631.429688
2630.152344	46977.062500
2628.705078	47201.128906
2627.256836	46750.671875
2625.808594	47456.515625
2624.360352	47094.585938
2622.911133	46841.972656
2621.461914	46961.851563
2620.012695	47092.050781
2618.562500	47132.167969
2617.112305	47810.867188
2615.661133	47321.328125
2614.210938	47762.648438
2612.758789	47551.781250
2611.307617	47672.964844
2609.855469	47344.683594
2608.402344	47277.492188
2606.950195	47614.589844
2605.496094	47979.148438
2604.042969	47452.523438
2602.588867	47713.351563
2601.134766	47585.722656
2599.679688	47480.585938
2598.224609	47532.468750
2596.769531	47741.261719
2595.313477	47606.835938
2593.857422	47544.875000
2592.401367	47679.386719
2590.944336	47924.089844
2589.486328	48032.597656
2588.029297	47927.519531
2586.571289	47703.703125
2585.112305	47548.839844
2583.654297	47676.238281
2582.195313	48008.277344
2580.735352	47868.917969
2579.275391	47764.011719
2577.815430	47721.035156
2576.354492	47860.234375
2574.893555	48159.140625
2573.432617	47672.933594
2571.970703	47695.253906
2570.508789	47834.304688
2569.045898	47897.757813
2567.583984	47631.722656
2566.120117	48088.027344
2564.657227	48247.394531
2563.193359	47979.746094
2561.728516	48199.046875
2560.263672	48130.328125
2558.798828	48049.640625
2557.333984	48390.359375
2555.868164	47980.855469
2554.402344	48124.527344
2552.935547	47877.882813
2551.468750	48091.656250
2550.000977	47911.855469
2548.534180	48180.230469
2547.065430	48140.695313
2545.597656	48193.484375
2544.128906	47894.187500
2542.659180	47921.375000
2541.190430	48062.984375
2539.720703	48033.750000
2538.250000	47871.359375
2536.779297	48526.613281
2535.308594	47860.789063
2533.836914	47944.207031
2532.365234	48305.582031
2530.893555	47861.964844
2529.420898	48374.878906
2527.948242	48188.796875
2526.475586	48561.652344
2525.001953	48116.695313
2523.527344	48225.414063
2522.053711	48070.183594
2520.579102	48556.710938
2519.103516	48575.031250
2517.627930	48697.113281
2516.152344	48495.980469
2514.675781	48335.753906
2513.199219	48609.082031
2511.722656	48544.070313
2510.245117	48275.199219
2508.767578	48222.183594
2507.290039	48507.132813
2505.811523	48518.593750
2504.333008	48356.914063
2502.853516	48755.285156
2501.374023	48712.371094
2499.893555	48618.593750
2498.414063	48835.156250
2496.932617	48597.292969
2495.452148	48427.335938
2493.970703	48587.855469
2492.488281	48714.406250
2491.006836	48686.789063
2489.524414	48317.187500
2488.041016	48533.402344
2486.557617	48974.566406
2485.074219	48899.519531
2483.589844	48234.242188
2482.105469	48643.000000
2480.621094	48767.554688
2479.135742	49103.289063
2477.650391	48974.214844
2476.164063	49183.031250
2474.677734	49025.285156
2473.191406	49201.894531
2471.704102	49140.421875
2470.216797	49693.203125
2468.728516	49319.531250
2467.240234	49258.058594
2465.751953	49565.878906
2464.262695	49253.195313
2462.773438	49648.488281
2461.283203	49681.328125
2459.793945	49350.312500
2458.302734	49736.839844
2456.812500	49850.429688
2455.321289	49608.812500
2453.829102	49456.500000
2452.336914	49393.421875
2450.844727	49848.378906
2449.351563	49833.980469
2447.858398	49806.140625
2446.365234	49670.750000
2444.871094	50079.789063
2443.376953	49719.308594
2441.882813	49809.054688
2440.387695	49939.042969
2438.891602	49792.019531
2437.395508	49658.492188
2435.899414	49934.351563
2434.403320	49758.914063
2432.906250	49692.550781
2431.409180	50060.371094
2429.911133	50032.496094
2428.413086	49902.433594
2426.914063	50008.605469
2425.416016	49791.523438
2423.916016	49840.738281
2422.416992	50077.378906
2420.916992	49962.503906
2419.416016	50091.921875
2417.915039	49687.761719
2416.414063	50151.570313
2414.912109	49705.804688
2413.410156	49846.832031
2411.908203	49723.808594
2410.405273	50152.039063
2408.902344	49950.507813
2407.398438	49867.605469
2405.894531	49924.937500
2404.390625	49354.847656
2402.885742	50409.824219
2401.380859	50013.339844
2399.875977	49968.847656
2398.370117	50192.742188
2396.863281	49878.257813
2395.356445	49940.445313
2393.849609	50170.824219
2392.342773	50038.074219
2390.834961	50078.519531
2389.327148	50082.324219
2387.818359	50295.769531
2386.309570	50083.257813
2384.799805	50778.863281
2383.290039	50163.976563
2381.780273	50478.554688
2380.269531	50578.605469
2378.758789	50514.125000
2377.248047	50476.250000
2375.736328	50790.406250
2374.223633	50324.179688
2372.711914	50366.027344
2371.199219	50519.015625
2369.685547	50612.203125
2368.171875	50448.296875
2366.658203	50768.578125
2365.143555	50496.972656
2363.628906	50580.109375
2362.114258	50616.812500
2360.598633	50822.425781
2359.083008	50963.351563
2357.566406	50933.699219
2356.049805	50918.953125
2354.532227	51072.964844
2353.014648	50815.031250
2351.497070	50702.746094
2349.978516	50603.738281
2348.459961	50651.875000
2346.941406	50488.480469
2345.421875	50805.882813
2343.902344	50774.640625
2342.381836	50693.882813
2340.861328	50870.664063
2339.340820	51014.343750
2337.819336	50760.335938
2336.296875	50654.902344
2334.775391	51034.316406
2333.252930	50907.425781
2331.729492	50981.664063
2330.206055	51045.976563
2328.682617	50938.933594
2327.158203	50955.453125
2325.633789	51032.878906
2324.109375	51222.187500
2322.583984	51477.214844
2321.057617	51047.722656
2319.532227	50958.906250
2318.005859	51420.972656
2316.478516	51123.324219
2314.951172	50986.878906
2313.423828	51427.210938
2311.895508	51387.664063
2310.367188	51405.613281
2308.838867	51352.949219
2307.309570	51255.988281
2305.779297	51561.101563
2304.250000	51119.625000
2302.718750	51570.574219
2301.188477	51363.781250
2299.657227	50868.589844
2298.125000	51163.550781
2296.593750	51160.171875
2295.061523	51952.835938
2293.528320	51194.339844
2291.995117	51321.906250
2290.461914	50850.375000
2288.927734	50861.781250
2287.393555	51377.019531
2285.858398	51371.917969
2284.323242	51309.593750
2282.788086	51270.179688
2281.251953	51941.636719
2279.715820	51588.390625
2278.178711	51508.085938
2276.641602	51431.085938
2275.103516	51504.304688
2273.566406	51202.113281
2272.027344	51133.394531
2270.489258	51738.390625
2268.950195	51377.648438
2267.410156	51595.863281
2265.870117	50938.687500
2264.330078	51240.000000
2262.789063	51865.343750
2261.248047	51229.765625
2259.706055	51470.507813
2258.165039	51766.468750
2256.622070	51453.621094
2255.079102	51469.582031
2253.536133	51656.320313
2251.993164	51636.433594
2250.449219	51406.835938
2248.904297	51907.113281
2247.359375	52044.777344
2245.814453	51610.554688
2244.269531	52003.187500
2242.723633	51923.140625
2241.176758	51953.507813
2239.629883	51842.671875
2238.083008	51905.480469
2236.535156	52042.863281
2234.987305	51870.457031
2233.439453	52307.667969
2231.890625	52146.621094
2230.340820	52068.281250
2228.791992	52121.187500
2227.242188	52397.539063
2225.691406	51914.433594
2224.140625	52075.765625
2222.589844	52411.769531
2221.038086	52509.789063
2219.486328	52646.566406
2217.933594	52453.425781
2216.380859	52620.851563
2214.828125	52557.089844
2213.274414	52905.339844
2211.719727	52969.128906
2210.166016	52427.335938
2208.611328	52785.019531
2207.055664	52897.195313
2205.500000	52697.894531
2203.944336	52945.523438
2202.387695	52967.242188
2200.831055	52760.003906
2199.273438	52826.882813
2197.715820	52658.449219
2196.158203	52891.246094
2194.599609	53101.367188
2193.041016	52939.421875
2191.481445	53057.652344
2189.921875	53343.191406
2188.362305	53197.382813
2186.801758	53379.781250
2185.240234	53431.824219
2183.679688	53197.671875
2182.117188	53278.656250
2180.555664	53457.613281
2178.993164	53308.757813
2177.430664	53714.046875
2175.867188	53578.042969
2174.302734	53339.371094
2172.739258	53375.230469
2171.174805	53865.085938
2169.609375	53559.148438
2168.043945	53450.593750
2166.478516	53925.605469
2164.912109	53294.539063
2163.345703	53647.566406
2161.779297	53503.839844
2160.211914	53561.960938
2158.643555	54095.539063
2157.075195	53799.742188
2155.506836	53844.925781
2153.937500	53501.343750
2152.368164	53708.101563
2150.798828	53830.003906
2149.228516	54044.550781
2147.657227	54201.453125
2146.086914	54350.277344
2144.515625	53983.113281
2142.943359	53991.386719
2141.371094	53506.367188
