#Wave		#Intensity
3550.240234	14972.070313
3549.007813	14982.257813
3547.776367	15050.360352
3546.543945	14929.019531
3545.311523	14968.593750
3544.078125	14995.934570
3542.844727	14956.093750
3541.611328	14759.576172
3540.377930	15037.185547
3539.143555	15204.833008
3537.909180	15162.941406
3536.674805	15027.537109
3535.440430	15115.795898
3534.205078	14848.353516
3532.969727	15312.513672
3531.734375	15032.952148
3530.499023	14828.657227
3529.262695	15105.702148
3528.026367	15224.272461
3526.790039	15225.066406
3525.552734	15201.505859
3524.315430	15244.906250
3523.078125	15113.841797
3521.840820	15128.847656
3520.602539	15072.879883
3519.364258	15170.997070
3518.125977	15228.535156
3516.886719	15117.869141
3515.648438	15205.778320
3514.409180	15129.592773
3513.168945	15231.632813
3511.929688	15368.043945
3510.689453	15237.216797
3509.449219	15314.878906
3508.208984	15271.114258
3506.967773	15403.346680
3505.726563	15499.118164
3504.485352	15408.833984
3503.243164	15191.234375
3502.001953	15198.059570
3500.758789	15477.659180
3499.516602	15375.329102
3498.274414	15275.060547
3497.031250	15287.913086
3495.788086	15203.854492
3494.543945	15392.314453
3493.300781	15356.696289
3492.056641	15534.950195
3490.811523	15196.750977
3489.567383	15356.808594
3488.322266	15540.990234
3487.077148	15319.918945
3485.832031	15604.791992
3484.585938	15486.559570
3483.339844	15591.982422
3482.093750	15703.399414
3480.847656	15559.040039
3479.600586	15728.793945
3478.353516	15499.954102
3477.106445	15615.312500
3475.858398	15587.777344
3474.610352	15556.229492
3473.362305	15482.463867
3472.114258	15752.529297
3470.865234	15678.749023
3469.616211	15621.076172
3468.367188	15521.233398
3467.117188	15477.678711
3465.868164	15807.692383
3464.617188	15639.600586
3463.367188	15766.677734
3462.117188	15690.987305
3460.866211	15665.493164
3459.614258	15688.156250
3458.363281	15750.921875
3457.111328	15627.166992
3455.859375	15758.079102
3454.607422	15810.761719
3453.354492	15771.236328
3452.102539	15938.089844
3450.848633	15818.426758
3449.595703	15845.007813
3448.341797	15715.402344
3447.087891	15800.041992
3445.833984	15794.583008
3444.580078	15651.061523
3443.325195	15855.682617
3442.070313	15680.208008
3440.814453	15870.731445
3439.559570	15925.228516
3438.303711	15811.807617
3437.046875	15842.311523
3435.791016	15854.818359
3434.534180	15891.287109
3433.277344	15953.698242
3432.020508	15982.139648
3430.762695	15842.896484
3429.504883	15693.733398
3428.247070	15716.222656
3426.988281	15666.887695
3425.730469	15667.431641
3424.471680	15839.447266
3423.211914	15688.447266
3421.953125	15985.939453
3420.693359	15884.784180
3419.432617	15909.175781
3418.172852	15698.535156
3416.912109	16172.977539
3415.651367	15892.689453
3414.390625	15694.127930
3413.128906	15744.395508
3411.867188	15717.047852
3410.605469	16003.983398
3409.343750	15781.702148
3408.081055	15899.497070
3406.818359	16049.041016
3405.554688	15707.654297
3404.291992	15728.025391
3403.028320	15954.974609
3401.764648	15909.740234
3400.500000	15723.551758
3399.236328	15662.504883
3397.971680	15948.799805
3396.706055	15691.288086
3395.441406	15707.651367
3394.175781	15829.123047
3392.909180	15730.436523
3391.643555	15778.494141
3390.376953	15935.541016
3389.110352	15890.394531
3387.843750	15978.002930
3386.576172	15966.534180
3385.308594	15863.977539
3384.041016	15844.616211
3382.773438	15771.819336
3381.504883	15805.916016
3380.236328	15697.542969
3378.966797	15798.891602
3377.698242	15862.619141
3376.428711	15847.228516
3375.158203	15877.307617
3373.888672	15911.325195
3372.618164	16087.588867
3371.347656	15635.583008
3370.077148	15894.775391
3368.805664	15930.725586
3367.534180	15806.754883
3366.262695	16020.335938
3364.990234	15689.207031
3363.717773	15829.722656
3362.445313	16076.680664
3361.172852	15976.469727
3359.899414	16032.047852
3358.625977	16020.583984
3357.352539	15884.976563
3356.078125	15962.204102
3354.803711	16035.457031
3353.529297	15862.514648
3352.254883	15856.999023
3350.979492	15841.642578
3349.704102	15914.849609
3348.428711	16104.104492
3347.152344	16131.973633
3345.875977	16073.295898
3344.599609	16053.966797
3343.322266	16111.308594
3342.044922	15873.827148
3340.767578	16025.494141
3339.490234	16053.332031
3338.211914	16032.055664
3336.933594	15792.833008
3335.655273	16038.604492
3334.375977	15877.991211
3333.097656	15956.840820
3331.817383	16110.200195
3330.538086	15992.823242
3329.257813	15808.826172
3327.977539	16030.726563
3326.697266	16127.083984
3325.416016	16248.871094
3324.134766	15951.344727
3322.853516	15967.342773
3321.572266	16038.163086
3320.290039	16236.208008
3319.007813	16193.404297
3317.724609	16082.125000
3316.442383	16096.110352
3315.159180	16254.835938
3313.875000	16153.390625
3312.591797	16010.930664
3311.307617	16263.389648
3310.023438	16181.548828
3308.738281	16312.712891
3307.454102	16137.129883
3306.167969	16287.771484
3304.882813	16147.416016
3303.596680	16399.492188
3302.310547	16227.943359
3301.024414	16269.153320
3299.738281	16144.527344
3298.451172	16234.492188
3297.164063	16299.065430
3295.875977	16359.708984
3294.587891	16268.300781
3293.299805	16254.875000
3292.011719	16221.972656
3290.722656	16286.466797
3289.433594	16199.044922
3288.144531	16358.904297
3286.855469	16230.628906
3285.565430	16425.431641
3284.275391	16211.595703
3282.984375	16470.496094
3281.694336	16445.367188
3280.402344	16525.232422
3279.111328	16488.437500
3277.819336	16412.792969
3276.528320	16568.375000
3275.235352	16314.042969
3273.943359	16490.935547
3272.650391	16526.015625
3271.357422	16460.142578
3270.063477	16632.994141
3268.770508	16431.312500
3267.476563	16631.244141
3266.181641	16365.654297
3264.887695	16526.730469
3263.592773	16480.320313
3262.296875	16606.408203
3261.001953	16802.189453
3259.706055	16860.345703
3258.410156	16920.410156
3257.113281	16587.398438
3255.816406	16554.578125
3254.519531	16606.923828
3253.222656	16490.910156
3251.924805	16498.751953
3250.626953	16769.611328
3249.329102	16603.361328
3248.030273	16843.140625
3246.732422	16816.097656
3245.432617	16593.912109
3244.133789	16744.660156
3242.833984	16735.037109
3241.534180	16555.496094
3240.234375	16684.910156
3238.933594	16673.371094
3237.632813	16669.552734
3236.331055	16681.167969
3235.030273	16856.714844
3233.728516	16538.548828
3232.426758	16908.751953
3231.124023	16708.285156
3229.821289	16935.683594
3228.518555	16586.958984
3227.215820	16535.003906
3225.912109	16777.685547
3224.608398	16673.726563
3223.303711	16783.455078
3222.000000	16812.312500
3220.695313	16791.136719
3219.389648	16787.279297
3218.084961	16891.105469
3216.779297	16852.617188
3215.473633	16583.498047
3214.166992	16785.296875
3212.860352	16896.705078
3211.553711	16666.169922
3210.246094	16733.384766
3208.939453	16671.937500
3207.631836	16702.646484
3206.323242	16812.017578
3205.015625	16984.648438
3203.707031	16537.658203
3202.397461	16783.138672
3201.088867	16520.447266
3199.779297	16742.812500
3198.468750	16848.179688
3197.159180	16754.246094
3195.848633	16865.304688
3194.538086	16826.941406
3193.226563	17020.253906
3191.916016	17098.628906
3190.603516	16748.306641
3189.291992	16719.564453
3187.979492	16853.417969
3186.666992	16927.927734
3185.354492	16771.060547
3184.041016	16639.115234
3182.727539	16837.832031
3181.414063	16736.496094
3180.099609	17024.869141
3178.785156	17093.494141
3177.470703	16898.613281
3176.156250	16843.160156
3174.840820	16816.357422
3173.525391	16890.683594
3172.208984	16688.390625
3170.893555	17043.041016
3169.576172	16796.953125
3168.259766	16815.929688
3166.942383	16884.443359
3165.625000	16701.429688
3164.307617	16769.935547
3162.989258	16788.894531
3161.670898	16883.998047
3160.352539	16895.302734
3159.033203	16857.121094
3157.714844	16759.976563
3156.394531	16737.056641
3155.075195	16807.332031
3153.754883	16921.300781
3152.434570	16961.082031
3151.113281	16962.835938
3149.791992	16772.693359
3148.470703	16932.144531
3147.149414	16861.734375
3145.827148	16829.326172
3144.504883	16971.564453
3143.182617	17001.767578
3141.859375	17056.621094
3140.536133	17067.818359
3139.212891	16991.773438
3137.888672	16830.445313
3136.564453	16877.697266
3135.240234	16921.134766
3133.915039	16907.710938
3132.589844	16966.271484
3131.264648	16708.544922
3129.939453	16827.707031
3128.613281	16623.130859
3127.287109	16908.787109
3125.959961	16848.074219
3124.632813	16872.507813
3123.305664	16980.134766
3121.978516	16894.865234
3120.650391	17104.503906
3119.322266	16641.287109
3117.993164	16932.126953
3116.665039	17050.939453
3115.335938	17028.060547
3114.005859	17048.615234
3112.676758	17055.945313
3111.346680	16776.429688
3110.015625	16838.529297
3108.685547	17021.318359
3107.354492	17021.095703
3106.022461	17047.269531
3104.691406	16922.634766
3103.359375	16935.623047
3102.027344	16935.414063
3100.694336	16974.759766
3099.361328	17330.451172
3098.028320	16931.015625
3096.695313	16832.923828
3095.361328	17259.900391
3094.027344	17054.537109
3092.692383	17084.382813
3091.357422	16988.222656
3090.022461	17256.830078
3088.687500	17111.800781
3087.351563	17066.431641
3086.015625	17026.718750
3084.678711	16990.779297
3083.342773	16928.564453
3082.005859	17054.115234
3080.667969	17175.851563
3079.331055	17256.246094
3077.993164	17370.369141
3076.654297	17214.349609
3075.315430	17307.796875
3073.976563	17196.855469
3072.637695	17378.351563
3071.298828	17437.960938
3069.958984	17319.566406
3068.618164	17255.542969
3067.278320	17335.730469
3065.937500	17320.404297
3064.595703	17140.378906
3063.254883	17190.591797
3061.913086	17223.943359
3060.571289	17324.607422
3059.228516	17559.853516
3057.885742	17280.894531
3056.542969	17355.304688
3055.200195	17394.173828
3053.856445	17395.660156
3052.511719	17275.748047
3051.167969	17450.908203
3049.823242	17415.041016
3048.478516	17569.552734
3047.132813	17343.349609
3045.788086	17404.529297
3044.441406	17585.037109
3043.095703	17237.791016
3041.749023	17246.750000
3040.402344	17363.796875
3039.055664	17672.699219
3037.708008	17428.207031
3036.360352	17390.546875
3035.011719	17440.414063
3033.663086	17464.193359
3032.314453	17288.832031
3030.965820	17470.781250
3029.616211	17323.400391
3028.266602	17696.798828
3026.916992	17469.482422
3025.566406	17519.234375
3024.215820	17325.513672
3022.865234	17306.529297
3021.513672	17371.138672
3020.162109	17361.431641
3018.809570	17466.837891
3017.458008	17336.460938
3016.105469	17375.013672
3014.751953	17647.310547
3013.399414	17555.929688
3012.045898	17399.685547
3010.691406	17534.583984
3009.336914	17365.441406
3007.982422	17637.406250
3006.627930	17473.875000
3005.272461	17514.158203
3003.916992	17572.939453
3002.561523	17405.832031
3001.205078	17327.642578
2999.848633	17447.482422
2998.492188	17709.710938
2997.134766	17596.357422
2995.777344	17324.037109
2994.419922	17321.746094
2993.061523	17221.500000
2991.703125	17396.615234
2990.344727	17335.187500
2988.985352	17445.548828
2987.625977	17446.914063
2986.266602	17453.816406
2984.906250	17349.978516
2983.545898	17373.501953
2982.185547	17278.955078
2980.824219	17418.666016
2979.462891	17504.839844
2978.101563	17450.875000
2976.739258	17525.937500
2975.376953	17661.763672
2974.014648	17512.011719
2972.651367	17557.535156
2971.288086	17623.287109
2969.924805	17515.980469
2968.560547	17559.625000
2967.196289	17695.236328
2965.832031	17632.128906
2964.466797	17712.486328
2963.101563	17487.615234
2961.736328	17498.121094
2960.370117	17617.035156
2959.003906	17405.205078
2957.637695	17423.062500
2956.270508	17398.675781
2954.903320	17471.597656
2953.535156	17838.144531
2952.167969	17578.796875
2950.799805	17686.472656
2949.430664	17737.238281
2948.062500	17525.771484
2946.692383	18038.509766
2945.323242	17748.257813
2943.953125	17828.269531
2942.583008	17684.755859
2941.212891	17848.984375
2939.841797	17806.234375
2938.470703	17816.585938
2937.099609	17793.990234
2935.727539	17897.650391
2934.355469	18054.304688
2932.982422	17861.585938
2931.609375	17848.134766
2930.236328	18090.593750
2928.863281	17936.376953
2927.489258	18103.785156
2926.115234	17896.666016
2924.740234	17996.433594
2923.366211	18088.847656
2921.990234	17951.234375
2920.615234	18087.406250
2919.239258	18015.533203
2917.863281	18009.355469
2916.486328	18025.058594
2915.109375	18173.833984
2913.732422	18111.115234
2912.355469	18022.914063
2910.977539	18022.197266
2909.599609	18030.583984
2908.220703	17818.644531
2906.841797	18127.437500
2905.462891	17935.593750
2904.083008	18144.130859
2902.703125	17950.552734
2901.323242	18015.310547
2899.942383	18289.126953
2898.561523	17915.691406
2897.180664	18091.259766
2895.798828	18232.222656
2894.416992	18080.669922
2893.035156	17989.117188
2891.652344	18068.267578
2890.269531	18027.580078
2888.886719	18168.376953
2887.502930	18160.337891
2886.119141	17876.605469
2884.735352	18044.531250
2883.350586	18179.740234
2881.965820	18117.324219
2880.581055	18314.054688
2879.195313	18213.589844
2877.809570	18120.416016
2876.422852	18183.005859
2875.036133	18028.332031
2873.649414	18002.228516
2872.262695	18233.068359
2870.875000	18114.667969
2869.487305	18104.833984
2868.098633	18038.953125
2866.709961	18171.939453
2865.321289	18077.154297
2863.931641	18107.080078
2862.541992	18079.185547
2861.152344	18237.306641
2859.761719	18039.683594
2858.371094	17973.917969
2856.980469	18101.265625
2855.588867	18044.533203
2854.197266	18204.263672
2852.805664	18223.265625
2851.413086	18092.625000
2850.020508	18169.314453
2848.627930	18100.011719
2847.234375	17973.093750
2845.840820	17912.873047
2844.447266	17685.226563
2843.052734	17842.919922
2841.658203	17822.363281
2840.262695	17733.443359
2838.867188	17748.894531
2837.471680	17913.603516
2836.075195	17686.279297
2834.679688	17676.562500
2833.282227	17873.509766
2831.885742	17682.289063
2830.488281	17760.585938
2829.089844	17955.566406
2827.692383	17595.703125
2826.293945	17573.445313
2824.894531	17646.302734
2823.496094	17866.228516
2822.096680	17730.923828
2820.696289	17764.234375
2819.296875	17675.626953
2817.895508	17626.488281
2816.495117	17727.882813
2815.093750	17752.199219
2813.692383	17640.390625
2812.290039	17668.292969
2810.888672	17561.927734
2809.485352	17525.406250
2808.083008	17596.248047
2806.679688	17835.193359
2805.276367	17537.539063
2803.872070	17649.443359
2802.467773	17741.626953
2801.063477	17631.839844
2799.658203	17507.812500
2798.252930	17694.619141
2796.847656	17563.490234
2795.441406	17878.722656
2794.035156	17642.310547
2792.627930	17896.697266
2791.220703	17633.634766
2789.813477	17709.550781
2788.406250	17806.826172
2786.998047	17779.269531
2785.589844	17557.476563
2784.180664	17574.533203
2782.771484	17746.550781
2781.362305	17930.945313
2779.952148	17800.123047
2778.541992	17605.287109
2777.131836	17862.535156
2775.720703	17738.935547
2774.309570	17807.488281
2772.897461	17867.111328
2771.486328	17700.933594
2770.074219	17895.625000
2768.661133	17871.666016
2767.248047	17734.025391
2765.834961	17772.275391
2764.420898	17711.072266
2763.006836	17788.355469
2761.592773	17837.205078
2760.177734	17870.058594
2758.762695	17833.718750
2757.347656	17976.501953
2755.931641	17938.376953
2754.515625	17857.728516
2753.099609	17908.248047
2751.682617	17831.185547
2750.265625	18021.607422
2748.847656	17930.384766
2747.430664	17901.167969
2746.011719	17928.597656
2744.593750	17966.628906
2743.174805	17974.566406
2741.754883	17938.285156
2740.335938	17993.960938
2738.916016	17947.082031
2737.495117	17956.777344
2736.075195	17855.158203
2734.653320	17829.539063
2733.232422	17802.166016
2731.810547	17870.140625
2730.388672	18121.642578
2728.965820	18062.449219
2727.542969	18005.046875
2726.120117	17836.556641
2724.697266	18013.751953
2723.273438	18003.996094
2721.848633	18022.441406
2720.423828	18146.595703
2718.999023	18203.746094
2717.574219	18084.757813
2716.148438	17751.023438
2714.722656	18003.611328
2713.295898	17819.642578
2711.870117	17711.416016
2710.442383	17877.630859
2709.015625	17827.468750
2707.587891	18058.617188
2706.159180	18069.949219
2704.731445	18109.386719
2703.301758	18252.451172
2701.873047	17908.947266
2700.443359	17995.798828
2699.013672	18010.632813
2697.583984	17921.914063
2696.153320	17840.253906
2694.721680	17990.177734
2693.291016	17933.089844
2691.859375	18058.365234
2690.426758	17952.207031
2688.995117	18114.212891
2687.562500	18258.615234
2686.128906	17940.550781
2684.695313	17943.085938
2683.261719	17984.130859
2681.828125	17948.146484
2680.393555	17943.673828
2678.958008	17848.236328
2677.523438	18041.408203
2676.087891	18085.867188
2674.651367	18048.144531
2673.215820	17797.234375
2671.778320	17901.117188
2670.341797	17917.611328
2668.904297	18145.392578
2667.466797	18163.558594
2666.028320	17773.292969
2664.589844	17953.820313
2663.151367	17903.980469
2661.711914	18035.546875
2660.272461	17846.214844
2658.833008	17719.732422
2657.392578	18077.800781
2655.952148	17651.636719
2654.510742	17859.736328
2653.069336	18041.609375
2651.627930	17983.126953
2650.185547	18037.808594
2648.743164	18048.958984
2647.300781	17990.511719
2645.857422	17888.611328
2644.414063	17783.281250
2642.970703	17801.429688
2641.526367	18040.292969
2640.082031	17969.748047
2638.636719	18012.150391
2637.191406	17926.015625
2635.746094	18105.568359
2634.299805	18061.109375
2632.853516	17858.751953
2631.406250	18020.830078
2629.959961	18026.720703
2628.511719	18247.630859
2627.064453	18083.562500
2625.616211	18181.287109
2624.167969	17993.054688
2622.718750	18142.718750
2621.269531	17911.289063
2619.819336	18119.765625
2618.370117	18059.824219
2616.918945	18119.324219
2615.468750	18173.601563
2614.017578	18170.769531
2612.566406	18074.554688
2611.114258	18159.916016
2609.662109	18110.416016
2608.209961	18043.658203
2606.756836	18161.781250
2605.303711	18240.119141
2603.849609	18183.734375
2602.395508	18213.689453
2600.941406	18191.851563
2599.486328	18023.367188
2598.031250	18094.732422
2596.576172	18145.365234
2595.120117	18108.042969
2593.664063	18119.000000
2592.207031	17971.414063
2590.750000	18108.160156
2589.292969	18217.277344
2587.834961	18025.001953
2586.376953	18054.894531
2584.918945	18189.751953
2583.459961	18063.007813
2582.000977	18013.732422
2580.541016	17974.798828
2579.081055	18128.447266
2577.621094	18165.132813
2576.161133	18253.349609
2574.699219	17960.123047
2573.238281	18251.019531
2571.776367	18060.964844
2570.314453	17994.607422
2568.851563	18237.214844
2567.389648	18014.701172
2565.925781	17823.175781
2564.462891	18122.230469
2562.998047	17941.058594
2561.534180	18190.218750
2560.069336	17889.160156
2558.604492	18105.652344
2557.138672	18125.060547
2555.672852	18017.738281
2554.207031	18090.226563
2552.740234	17938.464844
2551.273438	18084.507813
2549.806641	17960.193359
2548.338867	17947.101563
2546.871094	17850.236328
2545.402344	17854.271484
2543.933594	17817.287109
2542.464844	17939.208984
2540.995117	18102.062500
2539.525391	18044.546875
2538.054688	18014.375000
2536.583984	18134.410156
2535.113281	17921.648438
2533.641602	17823.287109
2532.169922	17868.234375
2530.698242	17964.308594
2529.225586	17782.480469
2527.752930	17875.115234
2526.279297	17822.882813
2524.805664	17867.763672
2523.332031	17818.962891
2521.857422	17964.263672
2520.382813	18036.300781
2518.908203	17767.984375
2517.432617	17945.503906
2515.956055	17993.675781
2514.480469	18033.322266
2513.003906	17704.074219
2511.526367	17910.314453
2510.049805	17919.363281
2508.571289	17882.542969
2507.093750	17934.044922
2505.615234	17825.933594
2504.135742	17746.728516
2502.657227	17916.998047
2501.177734	17864.951172
2499.697266	17777.310547
2498.216797	17757.537109
2496.736328	17591.990234
2495.254883	17938.322266
2493.773438	17889.714844
2492.291992	18064.714844
2490.809570	17860.302734
2489.327148	17904.859375
2487.843750	18145.726563
2486.360352	17973.595703
2484.876953	18077.292969
2483.392578	17790.255859
2481.908203	17856.746094
2480.423828	18017.863281
2478.938477	17736.125000
2477.453125	17834.673828
2475.966797	17995.667969
2474.480469	17712.457031
2472.993164	17983.132813
2471.506836	18149.023438
2470.018555	17941.916016
2468.531250	17962.652344
2467.042969	17926.033203
2465.553711	17869.199219
2464.065430	17986.013672
2462.576172	18020.193359
2461.085938	18040.873047
2459.595703	18157.550781
2458.105469	18205.125000
2456.614258	17963.109375
2455.123047	18153.767578
2453.630859	17989.285156
2452.139648	17811.429688
2450.646484	17860.703125
2449.154297	17999.064453
2447.661133	17987.750000
2446.166992	17934.423828
2444.672852	17971.849609
2443.178711	18118.433594
2441.683594	17913.980469
2440.188477	18102.468750
2438.693359	18082.742188
2437.197266	17960.669922
2435.701172	17934.275391
2434.205078	17882.736328
2432.708008	17772.539063
2431.209961	17920.535156
2429.712891	17828.814453
2428.213867	17938.183594
2426.715820	18008.972656
2425.216797	17900.548828
2423.717773	17844.076172
2422.217773	17939.933594
2420.717773	17957.097656
2419.216797	17740.060547
2417.715820	17671.972656
2416.214844	17858.054688
2414.713867	17753.195313
2413.210938	17887.353516
2411.708984	17655.564453
2410.206055	18085.308594
2408.703125	18022.236328
2407.199219	17930.814453
2405.695313	17797.714844
2404.191406	17769.796875
2402.686523	17902.031250
2401.181641	17749.023438
2399.675781	17871.187500
2398.169922	17739.931641
2396.664063	17740.384766
2395.157227	17787.484375
2393.650391	17876.195313
2392.142578	17856.626953
2390.634766	17812.097656
2389.126953	17775.910156
2387.618164	17801.300781
2386.109375	18014.642578
2384.599609	17584.300781
2383.089844	17613.041016
2381.580078	17588.578125
2380.069336	17615.636719
2378.558594	17755.646484
2377.047852	17865.689453
2375.536133	17548.945313
2374.023438	17758.580078
2372.511719	17564.830078
2370.998047	17689.732422
2369.485352	17696.802734
2367.971680	17642.507813
2366.458008	17707.607422
2364.943359	17641.734375
2363.428711	17582.519531
2361.913086	17742.003906
2360.397461	17654.636719
2358.881836	17752.755859
2357.365234	17768.056641
2355.848633	17677.435547
2354.332031	17790.357422
2352.814453	17648.498047
2351.295898	17723.333984
2349.778320	17578.253906
2348.258789	17742.314453
2346.740234	17519.642578
2345.220703	17591.123047
2343.701172	17631.187500
2342.180664	17773.593750
2340.660156	17721.150391
2339.138672	17586.224609
2337.617188	17573.447266
2336.095703	17575.521484
2334.573242	17702.910156
2333.050781	17739.564453
2331.528320	17474.599609
2330.004883	17587.082031
2328.480469	17516.662109
2326.957031	17637.306641
2325.431641	17542.210938
2323.907227	17572.255859
2322.381836	17714.179688
2320.856445	17707.968750
2319.330078	17543.869141
2317.803711	17588.673828
2316.276367	17439.482422
2314.749023	17541.806641
2313.221680	17407.486328
2311.693359	17555.755859
2310.165039	17428.066406
2308.635742	17689.529297
2307.106445	17634.083984
2305.577148	17716.500000
2304.046875	17716.849609
2302.516602	17589.275391
2300.985352	17578.175781
2299.454102	17424.472656
2297.922852	17429.806641
2296.390625	17417.115234
2294.858398	17420.806641
2293.325195	17586.605469
2291.791992	17351.236328
2290.258789	17304.201172
2288.724609	17316.093750
2287.190430	17349.242188
2285.655273	17339.853516
2284.120117	17538.105469
2282.583984	17440.404297
2281.048828	17448.968750
2279.511719	17442.824219
2277.975586	17234.156250
2276.438477	17466.460938
2274.900391	17367.263672
2273.362305	17042.902344
2271.824219	17382.753906
2270.285156	17252.660156
2268.746094	17479.759766
2267.206055	17387.199219
2265.666016	17374.550781
2264.125977	17311.392578
2262.584961	17316.687500
2261.043945	17235.658203
2259.502930	17286.554688
2257.960938	17479.041016
2256.417969	17365.482422
2254.875000	17364.238281
2253.332031	17101.125000
2251.789063	17407.279297
2250.245117	17409.271484
2248.700195	17320.248047
2247.155273	17302.761719
2245.610352	17439.601563
2244.064453	17301.916016
2242.518555	17326.654297
2240.972656	17124.140625
2239.425781	17176.496094
2237.877930	17233.689453
2236.331055	17336.265625
2234.783203	17237.724609
2233.234375	17349.968750
2231.685547	17403.810547
2230.136719	17384.714844
2228.586914	17364.005859
2227.037109	17281.771484
2225.486328	17304.808594
2223.935547	17284.132813
2222.384766	17174.470703
2220.833008	17385.164063
2219.281250	17259.355469
2217.728516	17447.279297
2216.175781	17329.599609
2214.622070	17234.603516
2213.068359	17255.976563
2211.514648	17256.339844
2209.959961	17319.677734
2208.405273	17400.736328
2206.850586	17525.328125
2205.294922	17449.781250
2203.738281	17214.578125
2202.181641	17358.466797
2200.625000	17276.570313
2199.068359	17257.572266
2197.510742	17451.285156
2195.952148	17329.148438
2194.393555	17178.082031
2192.834961	17262.171875
2191.275391	17405.777344
2189.715820	17373.890625
2188.155273	17414.419922
2186.595703	17290.865234
2185.034180	17162.546875
2183.472656	17238.462891
2181.911133	17237.191406
2180.349609	17263.234375
2178.787109	17311.750000
2177.223633	17332.939453
2175.660156	17415.125000
2174.096680	17503.687500
2172.532227	17300.148438
2170.967773	17311.687500
2169.403320	17305.574219
2167.837891	17270.601563
2166.271484	17330.224609
2164.705078	17471.546875
2163.138672	17361.250000
2161.572266	17547.337891
2160.003906	17300.960938
2158.436523	17560.605469
2156.868164	17088.679688
2155.299805	17375.443359
2153.730469	17113.365234
2152.161133	17241.642578
2150.590820	17157.205078
2149.020508	17398.888672
2147.450195	17381.568359
2145.878906	17289.166016
2144.307617	17332.572266
2142.735352	17192.326172
2141.163086	17326.724609
