#Wave		#Intensity
3550.258789	34320.960938
3549.027344	33907.335938
3547.794922	34248.453125
3546.562500	33807.324219
3545.330078	33600.550781
3544.096680	34106.406250
3542.863281	34001.417969
3541.629883	33979.906250
3540.396484	34086.578125
3539.162109	33898.253906
3537.928711	34010.988281
3536.693359	33802.421875
3535.458984	34154.988281
3534.223633	33987.121094
3532.989258	34079.406250
3531.752930	33980.687500
3530.517578	34227.285156
3529.281250	34075.773438
3528.044922	34076.585938
3526.808594	34087.542969
3525.571289	34147.195313
3524.333984	34373.187500
3523.096680	33830.296875
3521.859375	34086.671875
3520.621094	34073.265625
3519.382813	34410.554688
3518.144531	33793.121094
3516.906250	34020.898438
3515.666992	34062.199219
3514.427734	34344.500000
3513.188477	34245.980469
3511.948242	34175.847656
3510.708008	33968.101563
3509.467773	34426.222656
3508.227539	34394.523438
3506.986328	34255.625000
3505.745117	34513.164063
3504.503906	34214.566406
3503.262695	34158.667969
3502.020508	34120.976563
3500.778320	34505.601563
3499.535156	34051.695313
3498.292969	34545.226563
3497.049805	34870.941406
3495.806641	34629.218750
3494.563477	34393.648438
3493.319336	34113.781250
3492.075195	34632.976563
3490.831055	34577.066406
3489.585938	34609.914063
3488.340820	34549.996094
3487.095703	34447.765625
3485.850586	34476.578125
3484.604492	34616.191406
3483.358398	34562.351563
3482.112305	34540.753906
3480.866211	34708.441406
3479.619141	34439.195313
3478.372070	34596.761719
3477.125000	34587.234375
3475.876953	34732.621094
3474.629883	34775.355469
3473.380859	34711.488281
3472.132813	34661.718750
3470.883789	34756.695313
3469.634766	34425.574219
3468.385742	34590.875000
3467.136719	34798.285156
3465.886719	34758.570313
3464.636719	34779.109375
3463.386719	34707.289063
3462.135742	34784.019531
3460.884766	34818.574219
3459.633789	34732.738281
3458.381836	34785.332031
3457.130859	34869.980469
3455.878906	34782.175781
3454.625977	34971.011719
3453.374023	34829.105469
3452.121094	35128.035156
3450.868164	34887.996094
3449.614258	34495.855469
3448.361328	35020.902344
3447.107422	34606.878906
3445.853516	34657.343750
3444.598633	34863.855469
3443.343750	35170.292969
3442.088867	35012.585938
3440.833984	34644.988281
3439.578125	34999.242188
3438.322266	34839.667969
3437.066406	34903.964844
3435.809570	34742.472656
3434.553711	34656.949219
3433.295898	34944.894531
3432.039063	35150.851563
3430.782227	35193.031250
3429.524414	34644.480469
3428.265625	34858.335938
3427.007813	34683.109375
3425.749023	34906.828125
3424.490234	34759.578125
3423.231445	34430.980469
3421.971680	34969.492188
3420.711914	34726.667969
3419.452148	34726.988281
3418.192383	34581.914063
3416.931641	34717.664063
3415.670898	34917.058594
3414.409180	34768.042969
3413.148438	34662.867188
3411.886719	34804.433594
3410.625000	34959.855469
3409.362305	34305.835938
3408.099609	34831.097656
3406.836914	34833.343750
3405.574219	34676.597656
3404.311523	34490.117188
3403.047852	34625.515625
3401.783203	34756.878906
3400.519531	34437.460938
3399.254883	34548.949219
3397.990234	34650.460938
3396.725586	34769.781250
3395.459961	34744.226563
3394.194336	34708.765625
3392.928711	34306.472656
3391.663086	34110.535156
3390.396484	34309.105469
3389.129883	34537.308594
3387.862305	34723.800781
3386.595703	34462.562500
3385.328125	34833.148438
3384.060547	34275.019531
3382.791992	34322.832031
3381.523438	34483.417969
3380.254883	34689.437500
3378.986328	34377.101563
3377.716797	34501.960938
3376.447266	34549.652344
3375.177734	34427.312500
3373.908203	34427.558594
3372.637695	34627.363281
3371.367188	34455.691406
3370.095703	34187.320313
3368.825195	34266.585938
3367.553711	34381.343750
3366.282227	34397.367188
3365.009766	34358.125000
3363.737305	34220.257813
3362.464844	33875.351563
3361.192383	34258.230469
3359.918945	34252.558594
3358.645508	34459.753906
3357.372070	34335.792969
3356.097656	34322.210938
3354.823242	34143.175781
3353.548828	34592.417969
3352.274414	34165.320313
3350.999023	34285.625000
3349.723633	34535.761719
3348.447266	34390.304688
3347.171875	34455.390625
3345.895508	34687.605469
3344.619141	34333.785156
3343.341797	34638.652344
3342.064453	34860.832031
3340.787109	34306.781250
3339.509766	34257.839844
3338.231445	34313.003906
3336.953125	34692.128906
3335.674805	34382.023438
3334.395508	34403.746094
3333.117188	34558.886719
3331.836914	34239.203125
3330.557617	34659.085938
3329.277344	34739.539063
3327.997070	34678.800781
3326.716797	34512.242188
3325.435547	34459.410156
3324.154297	34187.171875
3322.873047	34438.031250
3321.591797	34769.058594
3320.309570	34618.312500
3319.027344	34508.730469
3317.744141	34283.738281
3316.461914	34553.835938
3315.178711	34696.667969
3313.894531	34471.773438
3312.611328	34819.843750
3311.327148	34567.644531
3310.042969	34432.816406
3308.757813	34852.941406
3307.472656	34925.164063
3306.187500	34712.214844
3304.902344	34704.375000
3303.616211	34698.488281
3302.330078	34520.855469
3301.043945	34472.074219
3299.757813	34667.160156
3298.470703	34577.406250
3297.183594	34733.375000
3295.895508	34485.734375
3294.607422	34980.773438
3293.319336	34828.660156
3292.031250	34972.726563
3290.742188	34945.328125
3289.454102	35079.558594
3288.164063	35178.683594
3286.875000	34876.808594
3285.584961	34898.085938
3284.294922	34911.570313
3283.003906	35102.042969
3281.713867	35195.195313
3280.422852	35272.750000
3279.130859	35196.710938
3277.839844	34992.449219
3276.547852	35266.207031
3275.254883	35102.804688
3273.962891	35184.152344
3272.669922	35168.386719
3271.376953	35253.562500
3270.083008	35123.281250
3268.790039	34818.445313
3267.496094	35192.648438
3266.201172	35300.992188
3264.907227	35166.929688
3263.612305	35079.445313
3262.316406	35271.062500
3261.021484	35530.402344
3259.725586	35408.015625
3258.429688	35306.984375
3257.132813	35153.714844
3255.836914	35509.617188
3254.540039	35294.437500
3253.242188	35437.300781
3251.945313	35698.097656
3250.647461	35411.449219
3249.348633	35250.609375
3248.050781	35314.082031
3246.751953	35271.222656
3245.453125	35185.871094
3244.153320	35369.070313
3242.853516	35542.527344
3241.553711	35362.546875
3240.253906	35628.578125
3238.953125	35408.121094
3237.652344	35623.843750
3236.351563	35229.859375
3235.049805	35391.515625
3233.748047	35462.460938
3232.446289	35176.730469
3231.143555	35417.296875
3229.840820	35470.835938
3228.538086	35320.140625
3227.235352	35271.589844
3225.931641	35500.343750
3224.627930	35609.632813
3223.324219	34989.394531
3222.019531	35483.593750
3220.714844	35506.226563
3219.410156	35750.031250
3218.104492	35522.597656
3216.798828	35591.332031
3215.493164	35500.500000
3214.186523	35638.378906
3212.879883	35438.058594
3211.573242	35427.984375
3210.266602	35508.164063
3208.958984	35584.460938
3207.651367	35545.554688
3206.343750	35111.355469
3205.035156	35145.476563
3203.726563	35377.136719
3202.417969	35439.933594
3201.108398	35588.972656
3199.798828	35661.265625
3198.489258	35484.402344
3197.178711	35614.160156
3195.868164	35728.527344
3194.557617	35484.734375
3193.247070	35143.410156
3191.935547	35164.003906
3190.624023	35328.109375
3189.311523	35302.722656
3188.000000	35344.296875
3186.687500	35550.304688
3185.374023	35196.031250
3184.061523	35470.785156
3182.748047	35305.875000
3181.433594	35418.070313
3180.120117	35734.589844
3178.805664	35256.535156
3177.491211	35129.996094
3176.175781	35511.250000
3174.860352	35279.746094
3173.544922	35481.437500
3172.229492	35343.503906
3170.913086	35121.722656
3169.596680	35161.238281
3168.280273	35311.292969
3166.962891	35449.835938
3165.645508	35119.621094
3164.327148	34896.222656
3163.009766	35147.113281
3161.691406	35055.175781
3160.373047	34944.242188
3159.053711	34915.187500
3157.734375	35390.332031
3156.415039	35117.703125
3155.094727	34970.710938
3153.774414	35061.441406
3152.454102	35237.664063
3151.133789	34815.179688
3149.812500	34951.468750
3148.491211	35093.394531
3147.168945	35047.238281
3145.847656	34892.878906
3144.525391	35454.203125
3143.202148	35387.109375
3141.879883	35246.050781
3140.556641	35142.988281
3139.232422	35479.937500
3137.909180	35170.203125
3136.584961	35150.621094
3135.259766	34861.945313
3133.935547	34994.011719
3132.610352	35137.375000
3131.285156	35096.972656
3129.958984	34897.550781
3128.632813	34953.753906
3127.306641	35218.093750
3125.980469	35130.394531
3124.653320	35233.781250
3123.326172	35287.945313
3121.998047	35132.218750
3120.670898	35165.582031
3119.341797	35079.871094
3118.013672	35332.386719
3116.684570	35326.000000
3115.355469	35306.398438
3114.026367	35094.218750
3112.696289	34995.394531
3111.366211	35168.355469
3110.036133	35548.765625
3108.705078	35168.839844
3107.374023	34990.871094
3106.042969	34831.832031
3104.711914	34799.156250
3103.379883	35049.160156
3102.046875	35340.492188
3100.714844	34959.242188
3099.381836	35058.371094
3098.048828	35208.281250
3096.714844	35183.066406
3095.380859	35112.699219
3094.046875	35471.308594
3092.712891	35114.996094
3091.377930	35161.273438
3090.042969	35169.921875
3088.707031	35825.144531
3087.372070	35576.179688
3086.036133	35614.773438
3084.699219	35153.722656
3083.362305	35389.558594
3082.025391	35373.714844
3080.688477	35586.859375
3079.350586	35492.152344
3078.012695	35243.648438
3076.674805	35501.675781
3075.335938	35390.167969
3073.997070	35651.781250
3072.658203	35722.089844
3071.318359	35672.433594
3069.978516	35319.308594
3068.638672	35402.742188
3067.298828	35546.054688
3065.958008	35766.054688
3064.616211	35828.726563
3063.275391	35792.191406
3061.933594	35634.070313
3060.591797	35894.968750
3059.249023	35600.390625
3057.906250	35728.437500
3056.563477	35533.085938
3055.219727	35539.625000
3053.876953	35792.746094
3052.532227	35752.523438
3051.188477	35900.902344
3049.843750	35772.925781
3048.499023	35605.812500
3047.153320	35761.574219
3045.808594	35583.343750
3044.461914	35673.753906
3043.116211	35680.210938
3041.769531	35893.578125
3040.422852	36019.250000
3039.076172	35857.917969
3037.728516	35838.230469
3036.380859	35762.679688
3035.032227	35575.445313
3033.683594	35693.578125
3032.334961	35833.980469
3030.986328	35412.417969
3029.636719	35547.234375
3028.287109	35893.984375
3026.937500	35995.148438
3025.586914	35562.781250
3024.236328	35680.691406
3022.885742	35713.078125
3021.534180	35615.421875
3020.182617	35959.781250
3018.830078	35604.039063
3017.478516	35547.300781
3016.125977	35373.675781
3014.772461	35543.355469
3013.419922	35308.597656
3012.066406	35307.601563
3010.711914	35530.929688
3009.358398	35611.425781
3008.003906	35539.929688
3006.648438	35725.980469
3005.292969	35767.464844
3003.937500	35499.687500
3002.582031	35574.523438
3001.225586	35580.839844
2999.869141	35117.140625
2998.512695	35436.199219
2997.155273	35699.617188
2995.797852	35550.558594
2994.440430	35429.292969
2993.082031	35295.148438
2991.723633	35253.449219
2990.365234	35727.171875
2989.005859	35498.847656
2987.646484	35405.417969
2986.287109	35343.414063
2984.926758	35624.707031
2983.566406	35616.179688
2982.206055	35445.320313
2980.844727	35326.179688
2979.483398	35260.562500
2978.122070	35327.691406
2976.759766	34972.761719
2975.397461	35395.515625
2974.035156	35302.296875
2972.671875	35606.898438
2971.308594	35224.609375
2969.945313	35840.156250
2968.581055	35345.730469
2967.216797	35328.050781
2965.852539	35341.640625
2964.487305	35430.621094
2963.122070	35466.238281
2961.756836	35378.683594
2960.390625	35236.039063
2959.024414	35244.105469
2957.658203	35176.863281
2956.291016	35098.628906
2954.923828	35563.835938
2953.556641	35584.652344
2952.188477	35653.160156
2950.820313	35387.750000
2949.452148	35547.972656
2948.083008	35220.363281
2946.713867	35701.347656
2945.343750	35502.144531
2943.974609	35328.687500
2942.604492	35703.039063
2941.233398	35361.121094
2939.862305	35815.835938
2938.491211	35739.476563
2937.120117	35619.222656
2935.748047	35713.097656
2934.375977	35792.285156
2933.003906	35690.386719
2931.630859	35937.742188
2930.257813	35700.585938
2928.883789	35589.628906
2927.509766	35743.644531
2926.135742	35835.476563
2924.761719	36135.437500
2923.386719	35882.066406
2922.011719	36068.699219
2920.635742	35892.101563
2919.260742	35786.734375
2917.883789	35896.640625
2916.507813	35924.429688
2915.130859	35775.367188
2913.753906	35916.167969
2912.375977	36319.285156
2910.998047	35971.660156
2909.620117	35930.167969
2908.242188	36008.871094
2906.863281	35943.722656
2905.483398	36062.414063
2904.104492	36153.753906
2902.724609	36063.136719
2901.344727	36208.980469
2899.963867	36171.113281
2898.583008	35938.761719
2897.202148	36148.125000
2895.820313	36039.433594
2894.438477	36210.515625
2893.056641	36078.246094
2891.673828	36501.593750
2890.291016	36253.140625
2888.908203	36200.789063
2887.524414	36438.734375
2886.140625	36293.851563
2884.755859	36197.996094
2883.372070	36308.851563
2881.987305	36069.847656
2880.601563	36546.703125
2879.215820	36170.070313
2877.830078	36324.281250
2876.444336	36462.113281
2875.057617	36569.101563
2873.670898	36489.625000
2872.283203	36372.183594
2870.895508	36432.070313
2869.507813	36235.121094
2868.120117	36045.492188
2866.731445	36381.972656
2865.342773	36293.597656
2863.953125	36465.429688
2862.563477	36342.750000
2861.173828	36353.757813
2859.783203	36308.789063
2858.392578	36139.292969
2857.001953	36419.210938
2855.610352	35906.984375
2854.218750	36006.445313
2852.827148	36039.136719
2851.434570	36612.640625
2850.041992	36300.914063
2848.649414	35985.730469
2847.255859	36173.304688
2845.862305	35721.417969
2844.467773	35991.785156
2843.073242	36296.218750
2841.678711	36325.144531
2840.284180	36129.144531
2838.888672	35747.957031
2837.493164	36062.929688
2836.096680	35660.363281
2834.700195	35793.644531
2833.303711	35635.734375
2831.906250	35795.898438
2830.509766	35873.355469
2829.111328	35614.968750
2827.713867	35672.675781
2826.315430	35536.507813
2824.916016	35648.031250
2823.517578	35721.824219
2822.118164	35661.062500
2820.717773	35844.187500
2819.317383	35738.601563
2817.916992	35581.085938
2816.516602	35755.128906
2815.115234	35534.980469
2813.713867	35614.023438
2812.311523	35567.687500
2810.909180	35571.492188
2809.506836	35791.832031
2808.104492	35786.628906
2806.701172	35658.000000
2805.296875	35522.277344
2803.893555	35057.660156
2802.489258	35370.781250
2801.084961	35581.886719
2799.679688	35457.023438
2798.274414	35350.078125
2796.868164	35462.812500
2795.462891	35486.230469
2794.056641	35641.703125
2792.649414	35902.371094
2791.242188	35677.691406
2789.834961	35305.093750
2788.427734	35695.800781
2787.019531	35688.800781
2785.611328	35510.714844
2784.202148	35632.035156
2782.792969	35913.609375
2781.383789	35748.054688
2779.973633	35819.367188
2778.563477	35774.945313
2777.153320	35643.343750
2775.742188	35485.121094
2774.331055	35921.031250
2772.918945	35853.496094
2771.507813	35444.664063
2770.095703	35755.839844
2768.682617	35841.195313
2767.269531	35780.835938
2765.856445	35883.894531
2764.442383	35605.156250
2763.028320	35699.324219
2761.614258	36080.941406
2760.200195	35674.605469
2758.785156	35859.140625
2757.369141	35924.765625
2755.953125	35444.292969
2754.537109	36082.492188
2753.121094	36178.128906
2751.704102	36034.542969
2750.287109	35646.605469
2748.869141	35908.714844
2747.452148	36156.527344
2746.033203	35809.542969
2744.615234	36085.562500
2743.196289	36018.257813
2741.777344	36198.578125
2740.357422	36122.433594
2738.937500	36286.722656
2737.516602	36067.437500
2736.096680	35915.394531
2734.675781	36152.023438
2733.253906	36158.964844
2731.832031	35980.519531
2730.410156	36209.882813
2728.988281	35877.988281
2727.565430	36019.046875
2726.141602	35835.507813
2724.718750	36050.562500
2723.294922	35953.480469
2721.870117	36240.648438
2720.446289	36108.316406
2719.021484	36131.066406
2717.595703	35787.488281
2716.169922	35914.179688
2714.744141	36333.000000
2713.318359	36133.921875
2711.891602	35905.027344
2710.463867	35809.921875
2709.037109	36284.609375
2707.609375	35962.664063
2706.181641	36315.792969
2704.752930	36088.878906
2703.324219	35914.773438
2701.894531	36221.980469
2700.464844	36128.691406
2699.035156	36131.992188
2697.605469	36173.898438
2696.174805	35998.218750
2694.744141	36103.277344
2693.312500	35855.792969
2691.880859	35881.933594
2690.449219	35596.054688
2689.016602	35949.933594
2687.583984	36266.839844
2686.150391	36187.750000
2684.717773	35725.207031
2683.283203	35984.152344
2681.849609	35919.179688
2680.415039	35847.234375
2678.980469	36056.964844
2677.544922	35899.320313
2676.109375	35626.355469
2674.673828	36134.878906
2673.237305	36045.476563
2671.800781	36150.050781
2670.363281	36289.500000
2668.925781	35983.578125
2667.488281	36056.648438
2666.050781	36082.558594
2664.612305	35974.085938
2663.172852	35808.093750
2661.734375	35902.050781
2660.294922	35741.386719
2658.854492	35687.132813
2657.414063	35913.492188
2655.973633	35913.226563
2654.533203	35712.640625
2653.091797	36328.902344
2651.650391	35802.730469
2650.208008	35642.343750
2648.765625	35576.003906
2647.323242	35829.804688
2645.879883	35958.242188
2644.436523	35977.066406
2642.992188	36126.261719
2641.547852	35773.093750
2640.103516	36188.101563
2638.659180	36050.496094
2637.213867	36288.078125
2635.767578	36237.316406
2634.321289	36125.824219
2632.875000	36003.976563
2631.428711	36244.785156
2629.981445	36043.171875
2628.534180	36327.195313
2627.085938	35952.289063
2625.637695	36303.781250
2624.189453	36017.433594
2622.740234	36153.914063
2621.291016	36188.144531
2619.841797	36371.257813
2618.391602	36521.386719
2616.941406	36245.707031
2615.490234	36215.847656
2614.040039	36488.703125
2612.587891	36370.593750
2611.136719	36294.035156
2609.684570	36189.855469
2608.231445	36185.949219
2606.778320	36524.097656
2605.325195	36288.664063
2603.872070	36286.453125
2602.417969	36159.945313
2600.962891	36332.066406
2599.508789	36102.082031
2598.053711	36263.773438
2596.597656	36097.722656
2595.142578	36088.640625
2593.685547	35941.667969
2592.229492	36166.984375
2590.772461	36600.636719
2589.315430	36672.375000
2587.857422	36356.640625
2586.399414	36319.945313
2584.941406	36088.781250
2583.482422	35859.453125
2582.023438	36000.078125
2580.563477	36046.042969
2579.103516	36394.578125
2577.643555	36258.207031
2576.182617	36226.730469
2574.721680	36226.187500
2573.260742	36007.511719
2571.798828	36034.492188
2570.336914	36092.355469
2568.874023	35949.382813
2567.411133	36204.554688
2565.948242	36035.886719
2564.484375	36441.820313
2563.020508	36266.312500
2561.556641	36491.992188
2560.091797	35956.679688
2558.626953	36060.675781
2557.161133	36322.195313
2555.695313	36241.101563
2554.229492	35870.722656
2552.762695	35962.640625
2551.295898	35915.910156
2549.829102	36057.375000
2548.361328	36102.988281
2546.892578	36136.605469
2545.424805	35824.914063
2543.956055	36096.121094
2542.486328	36189.503906
2541.017578	36316.996094
2539.547852	35938.960938
2538.077148	35759.144531
2536.606445	35872.984375
2535.135742	35925.335938
2533.664063	35842.890625
2532.192383	36084.523438
2530.720703	35691.750000
2529.248047	35735.554688
2527.775391	35821.941406
2526.301758	35780.496094
2524.828125	35837.863281
2523.354492	35675.523438
2521.879883	35640.945313
2520.405273	35577.449219
2518.929688	35622.882813
2517.455078	35935.375000
2515.978516	35878.640625
2514.502930	36071.878906
2513.026367	36071.230469
2511.548828	35863.250000
2510.071289	35704.640625
2508.593750	36164.386719
2507.116211	36061.812500
2505.637695	35640.117188
2504.158203	35939.976563
2502.679688	35844.316406
2501.200195	35713.070313
2499.719727	35865.125000
2498.239258	35842.449219
2496.758789	35833.347656
2495.277344	35881.863281
2493.795898	35676.214844
2492.314453	35943.246094
2490.832031	36142.398438
2489.349609	36170.460938
2487.867188	35826.140625
2486.383789	35991.320313
2484.899414	35921.269531
2483.415039	35979.785156
2481.930664	35750.828125
2480.446289	36218.425781
2478.960938	36074.015625
2477.475586	35716.789063
2475.989258	36074.238281
2474.502930	35833.707031
2473.016602	35942.765625
2471.529297	35893.109375
2470.041992	35870.468750
2468.553711	36062.085938
2467.065430	35955.082031
2465.577148	36165.117188
2464.087891	36192.988281
2462.598633	36153.433594
2461.108398	36157.699219
2459.618164	36060.898438
2458.127930	36098.855469
2456.636719	36187.300781
2455.145508	35994.617188
2453.654297	35613.570313
2452.162109	36206.730469
2450.669922	35938.496094
2449.176758	35964.636719
2447.683594	35957.144531
2446.189453	36178.203125
2444.696289	36294.976563
2443.201172	36112.707031
2441.707031	36031.285156
2440.211914	36003.621094
2438.715820	36165.621094
2437.220703	36002.015625
2435.723633	35955.917969
2434.227539	35975.246094
2432.730469	35957.671875
2431.233398	36277.027344
2429.735352	36209.105469
2428.237305	35739.125000
2426.738281	35902.507813
2425.239258	35781.140625
2423.740234	35793.757813
2422.240234	35982.097656
2420.740234	35905.968750
2419.240234	36147.707031
2417.739258	35760.503906
2416.238281	35793.152344
2414.736328	35880.945313
2413.234375	35398.843750
2411.731445	35722.250000
2410.229492	35925.226563
2408.725586	35784.117188
2407.222656	35526.218750
2405.718750	35720.734375
2404.213867	35614.816406
2402.708984	35744.148438
2401.204102	35669.953125
2399.699219	35769.187500
2398.193359	35725.019531
2396.686523	35684.207031
2395.179688	35928.289063
2393.672852	35740.867188
2392.166016	35623.476563
2390.658203	35714.222656
2389.149414	36011.292969
2387.641602	35860.632813
2386.131836	35868.070313
2384.623047	35690.910156
2383.113281	35949.429688
2381.603516	35915.273438
2380.092773	35771.460938
2378.582031	35451.625000
2377.070313	35593.664063
2375.558594	35474.941406
2374.046875	35537.214844
2372.534180	35649.242188
2371.021484	35489.105469
2369.507813	35597.761719
2367.994141	35721.281250
2366.480469	35925.972656
2364.965820	35518.960938
2363.451172	35499.890625
2361.936523	35517.277344
2360.420898	35612.488281
2358.904297	35901.367188
2357.388672	35842.480469
2355.872070	35618.132813
2354.354492	35850.527344
2352.836914	35993.480469
2351.319336	35582.398438
2349.800781	35551.753906
2348.282227	35592.195313
2346.763672	35733.402344
2345.244141	35552.410156
2343.723633	35723.273438
2342.204102	35880.835938
2340.682617	35161.832031
2339.162109	35680.847656
2337.640625	35854.789063
2336.119141	35400.230469
2334.596680	35681.328125
2333.074219	35858.421875
2331.550781	35779.968750
2330.027344	35536.785156
2328.503906	35809.308594
2326.979492	35467.425781
2325.455078	35293.648438
2323.930664	35435.980469
2322.405273	35589.757813
2320.878906	35361.785156
2319.353516	35602.660156
2317.826172	35516.203125
2316.299805	35518.550781
2314.772461	35543.906250
2313.245117	35605.386719
2311.716797	35420.449219
2310.188477	35370.257813
2308.659180	35339.792969
2307.129883	35296.207031
2305.600586	35625.117188
2304.070313	35282.914063
2302.540039	35603.453125
2301.008789	35515.562500
2299.477539	35249.039063
2297.946289	35362.847656
2296.414063	35796.066406
2294.881836	35490.359375
2293.348633	35183.171875
2291.815430	35409.820313
2290.282227	35387.582031
2288.748047	35556.785156
2287.213867	35423.277344
2285.678711	35227.691406
2284.143555	35333.035156
2282.607422	35454.664063
2281.072266	35416.085938
2279.535156	35186.378906
2277.999023	35322.644531
2276.460938	35303.710938
2274.923828	35177.046875
2273.385742	35468.238281
2271.847656	35137.644531
2270.308594	35148.125000
2268.769531	35134.140625
2267.229492	35244.062500
2265.689453	35298.507813
2264.149414	35550.085938
2262.608398	35247.656250
2261.067383	35342.765625
2259.526367	35232.667969
2257.984375	35251.214844
2256.441406	34893.832031
2254.898438	35112.566406
2253.355469	35215.703125
2251.812500	35123.648438
2250.268555	35317.761719
2248.723633	35037.191406
2247.178711	35166.226563
2245.633789	35434.886719
2244.087891	35495.535156
2242.541992	35699.019531
2240.996094	35318.066406
2239.449219	35365.707031
2237.902344	35142.390625
2236.354492	35417.109375
2234.806641	35398.195313
2233.257813	35517.078125
2231.708984	35430.074219
2230.160156	35563.460938
2228.610352	35737.269531
2227.060547	35135.312500
2225.509766	35315.609375
2223.958984	35353.382813
2222.408203	35399.222656
2220.856445	35191.058594
2219.304688	35322.625000
2217.751953	35751.617188
2216.199219	35474.011719
2214.645508	35167.453125
2213.092773	35281.105469
2211.538086	35196.027344
2209.983398	35186.886719
2208.428711	35494.152344
2206.874023	35609.203125
2205.318359	35753.230469
2203.761719	35671.351563
2202.206055	35379.867188
2200.648438	35435.160156
2199.091797	35377.597656
2197.534180	35355.507813
2195.975586	35256.101563
2194.416992	35924.976563
2192.858398	35954.277344
2191.298828	35639.082031
2189.739258	35512.332031
2188.179688	35778.214844
2186.619141	35757.648438
2185.057617	35815.882813
2183.497070	35703.675781
2181.934570	35462.945313
2180.373047	35540.484375
2178.810547	35979.410156
2177.247070	35762.875000
2175.683594	35609.070313
2174.120117	35617.453125
2172.555664	35662.738281
2170.991211	36179.656250
2169.426758	35703.511719
2167.861328	35767.968750
2166.295898	35510.183594
2164.729492	35536.191406
2163.163086	35885.824219
2161.595703	35858.855469
2160.028320	35801.468750
2158.459961	35465.550781
2156.892578	35864.437500
2155.323242	35898.292969
2153.754883	35576.996094
2152.184570	36041.105469
2150.615234	35745.515625
2149.044922	35907.226563
2147.473633	35664.550781
2145.903320	35754.300781
2144.331055	35692.269531
2142.759766	35879.363281
2141.187500	35616.183594
