#Wave		#Intensity
3550.429688	18815.562500
3549.198242	18866.503906
3547.965820	18880.812500
3546.733398	18846.232422
3545.500977	18933.843750
3544.268555	19102.851563
3543.035156	18946.109375
3541.801758	18887.115234
3540.568359	19011.257813
3539.333984	18712.238281
3538.099609	18850.595703
3536.865234	19001.091797
3535.630859	19001.091797
3534.395508	18844.591797
3533.160156	18925.898438
3531.924805	18964.505859
3530.689453	18999.033203
3529.453125	18836.566406
3528.216797	19171.578125
3526.980469	18822.398438
3525.743164	18773.712891
3524.505859	19025.328125
3523.268555	19055.726563
3522.031250	19023.242188
3520.792969	18712.982422
3519.555664	19023.175781
3518.316406	18982.603516
3517.078125	19000.810547
3515.838867	19158.792969
3514.599609	19049.347656
3513.360352	19020.947266
3512.121094	18945.990234
3510.880859	19387.220703
3509.640625	19109.843750
3508.399414	19253.421875
3507.159180	19198.701172
3505.917969	19299.724609
3504.676758	19437.097656
3503.434570	19436.947266
3502.192383	19390.308594
3500.951172	19272.964844
3499.708008	19173.851563
3498.465820	19474.695313
3497.222656	19357.402344
3495.979492	19363.312500
3494.735352	19464.083984
3493.492188	19379.152344
3492.248047	19550.488281
3491.003906	19503.896484
3489.758789	19435.138672
3488.514648	19618.443359
3487.268555	19501.304688
3486.023438	19535.371094
3484.778320	19402.177734
3483.532227	19567.189453
3482.286133	19615.312500
3481.039063	19673.478516
3479.792969	19687.328125
3478.545898	19503.914063
3477.297852	19678.777344
3476.050781	19449.167969
3474.802734	19786.890625
3473.554688	19750.412109
3472.306641	19724.000000
3471.057617	19804.136719
3469.808594	19395.873047
3468.559570	19674.960938
3467.310547	19720.898438
3466.060547	19833.089844
3464.810547	19874.953125
3463.559570	19659.830078
3462.309570	19882.347656
3461.058594	19579.017578
3459.807617	19969.974609
3458.556641	19815.183594
3457.304688	19917.140625
3456.052734	19828.585938
3454.800781	19818.242188
3453.547852	19978.244141
3452.294922	20124.148438
3451.041992	20045.632813
3449.789063	19626.685547
3448.535156	20012.839844
3447.281250	19952.408203
3446.027344	20044.109375
3444.772461	19735.574219
3443.518555	20013.328125
3442.263672	19952.941406
3441.007813	19994.562500
3439.752930	20060.152344
3438.497070	19745.943359
3437.241211	19801.562500
3435.984375	20058.945313
3434.727539	20072.519531
3433.470703	20032.167969
3432.213867	20097.650391
3430.956055	20079.261719
3429.699219	20132.726563
3428.440430	20078.419922
3427.182617	20089.964844
3425.923828	19961.896484
3424.665039	20063.185547
3423.406250	19831.509766
3422.146484	20307.476563
3420.886719	20235.255859
3419.626953	19906.072266
3418.367188	19969.406250
3417.106445	20128.294922
3415.845703	20185.576172
3414.584961	20222.925781
3413.323242	20172.695313
3412.061523	20247.828125
3410.799805	20229.435547
3409.538086	20234.914063
3408.275391	20248.341797
3407.012695	20106.710938
3405.750000	20048.609375
3404.486328	20010.400391
3403.222656	20222.505859
3401.958984	20077.023438
3400.695313	20136.123047
3399.430664	19964.914063
3398.166016	20319.732422
3396.901367	19975.919922
3395.635742	19917.931641
3394.370117	20357.806641
3393.104492	20083.611328
3391.838867	20204.060547
3390.572266	20290.757813
3389.305664	20153.486328
3388.039063	20335.251953
3386.771484	20198.027344
3385.503906	20197.505859
3384.236328	20204.900391
3382.968750	20198.435547
3381.700195	20284.982422
3380.431641	20165.718750
3379.163086	20236.406250
3377.893555	20439.566406
3376.624023	20486.429688
3375.354492	19993.597656
3374.083984	20244.101563
3372.814453	20204.029297
3371.543945	20288.427734
3370.272461	20039.001953
3369.001953	20545.966797
3367.730469	20379.505859
3366.458008	20296.013672
3365.186523	20145.462891
3363.914063	20395.470703
3362.641602	20136.478516
3361.369141	20230.583984
3360.095703	20155.093750
3358.822266	20379.242188
3357.548828	20250.539063
3356.274414	20480.470703
3355.000000	20192.246094
3353.725586	20504.796875
3352.451172	20531.714844
3351.175781	20182.642578
3349.900391	20351.314453
3348.625000	20352.664063
3347.348633	20397.287109
3346.072266	20520.554688
3344.795898	20592.644531
3343.519531	20485.808594
3342.242188	20799.609375
3340.964844	20596.488281
3339.687500	20605.623047
3338.409180	20436.021484
3337.130859	20559.072266
3335.852539	20556.421875
3334.573242	20671.535156
3333.294922	20580.554688
3332.014648	20556.314453
3330.735352	20734.107422
3329.455078	20582.375000
3328.174805	20520.894531
3326.894531	20571.164063
3325.613281	20580.255859
3324.333008	20728.445313
3323.050781	20670.894531
3321.769531	20664.283203
3320.487305	20567.611328
3319.205078	20936.851563
3317.922852	20894.953125
3316.639648	20768.939453
3315.356445	20864.019531
3314.073242	20968.835938
3312.789063	20774.449219
3311.505859	20836.226563
3310.220703	21095.365234
3308.936523	21002.677734
3307.651367	20833.843750
3306.366211	20801.796875
3305.081055	20842.009766
3303.794922	21050.085938
3302.508789	20742.814453
3301.222656	21204.478516
3299.936523	20951.929688
3298.649414	20900.380859
3297.362305	21197.896484
3296.074219	21208.695313
3294.787109	20915.433594
3293.499023	21158.173828
3292.209961	21176.759766
3290.921875	20946.025391
3289.632813	21032.802734
3288.343750	20987.152344
3287.053711	21258.785156
3285.763672	21137.207031
3284.473633	21309.455078
3283.183594	21240.433594
3281.892578	21173.382813
3280.601563	21541.865234
3279.310547	21398.966797
3278.018555	21487.386719
3276.726563	21334.845703
3275.434570	21442.660156
3274.142578	21616.451172
3272.849609	21510.574219
3271.556641	21507.623047
3270.262695	21560.951172
3268.969727	21501.718750
3267.675781	21556.958984
3266.380859	21685.867188
3265.086914	21203.955078
3263.791992	21414.296875
3262.497070	21452.054688
3261.201172	21582.796875
3259.905273	21490.705078
3258.609375	21770.500000
3257.313477	21765.535156
3256.016602	21628.933594
3254.719727	21850.437500
3253.422852	21404.285156
3252.125000	21440.023438
3250.827148	21901.234375
3249.529297	21602.322266
3248.230469	21595.453125
3246.931641	21613.710938
3245.632813	22014.548828
3244.333984	21766.103516
3243.034180	21539.013672
3241.734375	21833.384766
3240.434570	21863.136719
3239.133789	22024.119141
3237.833008	21733.492188
3236.532227	21635.912109
3235.230469	21765.968750
3233.928711	21778.335938
3232.626953	22189.765625
3231.325195	21928.330078
3230.022461	21894.396484
3228.719727	21835.431641
3227.416016	22009.550781
3226.112305	21806.156250
3224.808594	22009.074219
3223.504883	22086.787109
3222.200195	22147.140625
3220.895508	22065.097656
3219.590820	21779.205078
3218.286133	22241.490234
3216.980469	22190.234375
3215.673828	22277.394531
3214.368164	21928.289063
3213.061523	22184.533203
3211.754883	22092.992188
3210.448242	22078.304688
3209.140625	21973.386719
3207.833008	22327.267578
3206.525391	22145.574219
3205.216797	22386.050781
3203.908203	22284.984375
3202.599609	22239.574219
3201.290039	22240.199219
3199.980469	22344.328125
3198.670898	22024.886719
3197.360352	22071.535156
3196.050781	21993.652344
3194.740234	22046.025391
3193.428711	22328.126953
3192.117188	22242.574219
3190.805664	22227.867188
3189.494141	22197.857422
3188.181641	22384.009766
3186.869141	22023.128906
3185.556641	22379.394531
3184.243164	22221.296875
3182.929688	22177.933594
3181.616211	22449.841797
3180.302734	22165.757813
3178.988281	22265.662109
3177.673828	22214.681641
3176.358398	22388.966797
3175.042969	22208.205078
3173.727539	22245.033203
3172.412109	22117.794922
3171.095703	22600.878906
3169.779297	22136.136719
3168.462891	22138.625000
3167.145508	22421.257813
3165.828125	22078.812500
3164.510742	22159.404297
3163.192383	22316.136719
3161.874023	22173.865234
3160.555664	22182.037109
3159.236328	22055.083984
3157.917969	22440.003906
3156.597656	22198.910156
3155.278320	22258.408203
3153.958008	22405.337891
3152.637695	22519.880859
3151.316406	22455.724609
3149.996094	22262.396484
3148.674805	22462.367188
3147.352539	22244.433594
3146.031250	22524.052734
3144.708984	22488.433594
3143.385742	22276.332031
3142.063477	22493.128906
3140.740234	22379.759766
3139.416016	22442.812500
3138.092773	22251.767578
3136.768555	22504.375000
3135.444336	22444.162109
3134.119141	22421.871094
3132.793945	22477.251953
3131.468750	22381.097656
3130.143555	22118.371094
3128.817383	22251.386719
3127.491211	22584.941406
3126.164063	22558.847656
3124.836914	22381.437500
3123.509766	22482.107422
3122.182617	22490.082031
3120.854492	22312.804688
3119.526367	22515.462891
3118.198242	22540.421875
3116.869141	22684.371094
3115.540039	22558.193359
3114.210938	22775.701172
3112.880859	22721.285156
3111.550781	22691.425781
3110.220703	22593.656250
3108.889648	22720.398438
3107.559570	22843.306641
3106.227539	22726.708984
3104.896484	22578.119141
3103.564453	22993.068359
3102.232422	22769.117188
3100.899414	22959.667969
3099.566406	22807.386719
3098.233398	22704.125000
3096.900391	22947.255859
3095.566406	22830.832031
3094.232422	22942.111328
3092.897461	22955.527344
3091.563477	22897.472656
3090.228516	22884.566406
3088.892578	23108.500000
3087.556641	23014.736328
3086.220703	23169.015625
3084.884766	22956.943359
3083.547852	23004.117188
3082.210938	22799.689453
3080.874023	22852.503906
3079.536133	23487.023438
3078.198242	23083.750000
3076.860352	23029.541016
3075.521484	23176.001953
3074.182617	23159.287109
3072.843750	23376.869141
3071.504883	23601.843750
3070.165039	23268.416016
3068.824219	23362.191406
3067.484375	23279.898438
3066.143555	23382.984375
3064.802734	23338.154297
3063.460938	23418.714844
3062.119141	23226.099609
3060.777344	23525.478516
3059.435547	23342.271484
3058.092773	23310.578125
3056.750000	23432.158203
3055.406250	23465.853516
3054.062500	23639.642578
3052.718750	23725.562500
3051.375000	23662.060547
3050.030273	23656.455078
3048.685547	23449.281250
3047.339844	23553.816406
3045.995117	23809.404297
3044.649414	23669.474609
3043.302734	23852.189453
3041.956055	23650.792969
3040.609375	23609.773438
3039.262695	23771.867188
3037.915039	23879.859375
3036.567383	23669.326172
3035.219727	23620.880859
3033.871094	23708.347656
3032.522461	23741.798828
3031.173828	23592.888672
3029.824219	24026.289063
3028.474609	23797.408203
3027.124023	23587.226563
3025.774414	23932.943359
3024.423828	23841.763672
3023.072266	23752.482422
3021.721680	23862.000000
3020.370117	23880.462891
3019.017578	23956.470703
3017.666016	23700.177734
3016.313477	23800.312500
3014.959961	23868.857422
3013.607422	23788.974609
3012.253906	23844.501953
3010.899414	23961.183594
3009.545898	23931.375000
3008.191406	23955.318359
3006.835938	23986.658203
3005.481445	23862.392578
3004.125977	23854.847656
3002.770508	23988.005859
3001.414063	24261.767578
3000.057617	24046.871094
2998.701172	23820.974609
2997.343750	23830.082031
2995.986328	24244.144531
2994.628906	24047.933594
2993.270508	23838.876953
2991.912109	23920.025391
2990.553711	23908.763672
2989.194336	24039.718750
2987.834961	23928.718750
2986.475586	24146.365234
2985.115234	24098.138672
2983.754883	24090.523438
2982.394531	23974.072266
2981.034180	24082.677734
2979.672852	23940.464844
2978.310547	24179.902344
2976.949219	24236.769531
2975.586914	24420.738281
2974.223633	24099.890625
2972.861328	24309.582031
2971.498047	24414.224609
2970.134766	24331.056641
2968.770508	24273.691406
2967.406250	24317.542969
2966.041992	24254.683594
2964.676758	24180.818359
2963.311523	24448.955078
2961.946289	24340.148438
2960.580078	24440.886719
2959.213867	24429.501953
2957.847656	24368.527344
2956.480469	24636.285156
2955.113281	24779.070313
2953.746094	24681.337891
2952.377930	24655.216797
2951.009766	24588.744141
2949.641602	24753.402344
2948.272461	24551.240234
2946.903320	25012.808594
2945.534180	24838.167969
2944.164063	24749.730469
2942.793945	24654.005859
2941.423828	24699.347656
2940.052734	24881.994141
2938.681641	24833.892578
2937.309570	25153.673828
2935.938477	24816.431641
2934.566406	25061.058594
2933.193359	25135.482422
2931.821289	25094.677734
2930.447266	25212.923828
2929.074219	25283.593750
2927.700195	25169.693359
2926.326172	25096.031250
2924.952148	25219.630859
2923.577148	25332.212891
2922.202148	25377.201172
2920.826172	25126.537109
2919.451172	25204.386719
2918.074219	25309.558594
2916.698242	25496.734375
2915.321289	25485.097656
2913.944336	25336.767578
2912.567383	25443.615234
2911.189453	25566.804688
2909.810547	25374.839844
2908.432617	25335.921875
2907.053711	25378.939453
2905.674805	25398.273438
2904.294922	25645.042969
2902.915039	25753.435547
2901.535156	25769.019531
2900.155273	25695.498047
2898.774414	25549.298828
2897.392578	25703.033203
2896.011719	25705.884766
2894.629883	25830.435547
2893.248047	25709.759766
2891.865234	25812.457031
2890.482422	26040.349609
2889.099609	25703.748047
2887.715820	25944.250000
2886.332031	26012.318359
2884.948242	25817.406250
2883.563477	26141.093750
2882.178711	26180.054688
2880.792969	26217.183594
2879.408203	26018.777344
2878.022461	25945.437500
2876.635742	25924.642578
2875.249023	25693.857422
2873.862305	25817.917969
2872.475586	25840.587891
2871.087891	25973.593750
2869.700195	25777.373047
2868.311523	25908.513672
2866.923828	26095.626953
2865.534180	26141.681641
2864.145508	26182.291016
2862.755859	25980.826172
2861.366211	26034.089844
2859.975586	26096.353516
2858.584961	26252.445313
2857.194336	26081.826172
2855.802734	26055.621094
2854.411133	26105.181641
2853.019531	25992.419922
2851.626953	26177.177734
2850.234375	26185.208984
2848.841797	26140.976563
2847.448242	26145.404297
2846.054688	25964.314453
2844.661133	25911.158203
2843.266602	25813.017578
2841.872070	26139.666016
2840.476563	25883.173828
2839.082031	26080.121094
2837.686523	25748.228516
2836.290039	25518.982422
2834.893555	26035.830078
2833.497070	26018.679688
2832.099609	26021.298828
2830.703125	25860.455078
2829.304688	25550.636719
2827.907227	25799.322266
2826.508789	26164.554688
2825.109375	25754.390625
2823.710938	25776.787109
2822.311523	25616.224609
2820.911133	25665.537109
2819.511719	25732.748047
2818.111328	25746.158203
2816.709961	25680.714844
2815.308594	25502.443359
2813.907227	25671.705078
2812.505859	26025.304688
2811.103516	25684.173828
2809.701172	25935.582031
2808.297852	25827.232422
2806.894531	26060.587891
2805.491211	25927.218750
2804.087891	25860.064453
2802.683594	26055.695313
2801.278320	25995.685547
2799.874023	25953.568359
2798.468750	26025.781250
2797.062500	25964.029297
2795.657227	25898.732422
2794.250977	25981.607422
2792.843750	25980.572266
2791.437500	26261.396484
2790.029297	26080.154297
2788.622070	26020.246094
2787.213867	25919.363281
2785.805664	25886.251953
2784.396484	26188.123047
2782.988281	26386.525391
2781.578125	26303.451172
2780.168945	26061.955078
2778.758789	26156.996094
2777.347656	26499.343750
2775.937500	26355.822266
2774.526367	26303.082031
2773.114258	26310.824219
2771.703125	26304.335938
2770.290039	26516.464844
2768.877930	26413.972656
2767.464844	26215.595703
2766.051758	26651.363281
2764.637695	26616.376953
2763.224609	26634.660156
2761.809570	26656.482422
2760.395508	26596.671875
2758.980469	26737.333984
2757.564453	26640.287109
2756.149414	26679.802734
2754.733398	26912.505859
2753.316406	27203.568359
2751.900391	26787.589844
2750.483398	26733.144531
2749.065430	26815.076172
2747.647461	26925.287109
2746.229492	26890.310547
2744.811523	26996.904297
2743.392578	27112.289063
2741.972656	26900.423828
2740.553711	26939.738281
2739.133789	26938.373047
2737.712891	26875.150391
2736.292969	27161.792969
2734.872070	27095.007813
2733.450195	27243.701172
2732.028320	27108.068359
2730.606445	27254.916016
2729.184570	27279.923828
2727.761719	27126.732422
2726.338867	27169.392578
2724.915039	27425.394531
2723.491211	27360.417969
2722.067383	27281.369141
2720.642578	27283.412109
2719.217773	27329.490234
2717.792969	27292.769531
2716.367188	27326.492188
2714.941406	27252.816406
2713.514648	27094.703125
2712.088867	27080.937500
2710.661133	27406.658203
2709.234375	27396.332031
2707.806641	27303.378906
2706.378906	27430.175781
2704.950195	27590.296875
2703.521484	27629.115234
2702.091797	27508.082031
2700.663086	27548.652344
2699.233398	27806.878906
2697.802734	27213.775391
2696.372070	28010.617188
2694.941406	27752.800781
2693.509766	27724.849609
2692.078125	27716.195313
2690.646484	27542.773438
2689.214844	27555.191406
2687.781250	27548.330078
2686.348633	27879.519531
2684.915039	27853.310547
2683.481445	27678.306641
2682.047852	27624.152344
2680.613281	28052.970703
2679.178711	27809.812500
2677.743164	27846.601563
2676.307617	28031.994141
2674.872070	27927.111328
2673.435547	27934.126953
2671.999023	27782.140625
2670.561523	27927.175781
2669.125000	28084.361328
2667.686523	27825.943359
2666.249023	27979.578125
2664.810547	27993.533203
2663.372070	28049.347656
2661.932617	27937.693359
2660.493164	27808.654297
2659.053711	28021.359375
2657.613281	28111.957031
2656.172852	28280.914063
2654.731445	27995.130859
2653.291016	27975.941406
2651.848633	28158.724609
2650.407227	28158.646484
2648.964844	28287.341797
2647.521484	28205.453125
2646.079102	28102.732422
2644.635742	28363.494141
2643.191406	28394.642578
2641.747070	27763.576172
2640.302734	28594.154297
2638.858398	28510.558594
2637.413086	28314.113281
2635.967773	28458.080078
2634.521484	28541.216797
2633.075195	28825.619141
2631.627930	28497.421875
2630.181641	28601.291016
2628.733398	28684.296875
2627.286133	28758.589844
2625.837891	28633.517578
2624.389648	28541.427734
2622.940430	28932.718750
2621.491211	28795.564453
2620.041992	28961.492188
2618.591797	28646.091797
2617.141602	28931.382813
2615.690430	29110.984375
2614.240234	29072.539063
2612.788086	28994.335938
2611.336914	29180.693359
2609.884766	28983.232422
2608.431641	28969.039063
2606.979492	29067.144531
2605.525391	29096.111328
2604.072266	29166.503906
2602.618164	29209.236328
2601.164063	29039.660156
2599.708984	29201.451172
2598.253906	29037.132813
2596.798828	29128.130859
2595.342773	29246.666016
2593.886719	29041.082031
2592.430664	29121.662109
2590.973633	29203.919922
2589.516602	29415.316406
2588.058594	29051.462891
2586.600586	29276.556641
2585.142578	29186.570313
2583.683594	29232.560547
2582.224609	29374.859375
2580.764648	29670.144531
2579.304688	29463.222656
2577.844727	29417.980469
2576.383789	29733.646484
2574.923828	29281.169922
2573.461914	29527.998047
2572.000000	29424.388672
2570.538086	29413.535156
2569.076172	29572.601563
2567.613281	29654.369141
2566.150391	29574.837891
2564.686523	29515.923828
2563.222656	29616.496094
2561.758789	29710.156250
2560.293945	29625.539063
2558.829102	29933.308594
2557.363281	29679.093750
2555.897461	29688.724609
2554.431641	29660.679688
2552.964844	29719.939453
2551.498047	29589.226563
2550.031250	29728.871094
2548.563477	29709.386719
2547.095703	29958.355469
2545.626953	29786.677734
2544.158203	29768.892578
2542.689453	29904.882813
2541.219727	29963.935547
2539.750000	29732.648438
2538.280273	29875.365234
2536.809570	29889.996094
2535.337891	29829.533203
2533.867188	29883.398438
2532.395508	29720.630859
2530.922852	29883.615234
2529.451172	29806.158203
2527.978516	30021.865234
2526.504883	29883.068359
2525.031250	30039.023438
2523.557617	30026.302734
2522.083008	29782.046875
2520.608398	30028.109375
2519.133789	30165.138672
2517.658203	30228.943359
2516.182617	30280.806641
2514.706055	30247.623047
2513.229492	30199.154297
2511.752930	30341.050781
2510.275391	30426.802734
2508.797852	30218.644531
2507.319336	30280.603516
2505.840820	30340.830078
2504.362305	30499.468750
2502.882813	30277.916016
2501.403320	30288.890625
2499.923828	30335.472656
2498.443359	30083.601563
2496.962891	30638.761719
2495.481445	30498.789063
2494.000000	30455.458984
2492.518555	30501.925781
2491.036133	30675.375000
2489.553711	30933.384766
2488.071289	30715.638672
2486.587891	30717.984375
2485.103516	30661.113281
2483.620117	30485.876953
2482.135742	30677.646484
2480.650391	30622.511719
2479.165039	30619.791016
2477.679688	30853.611328
2476.194336	31122.783203
2474.708008	31143.570313
2473.220703	30813.177734
2471.733398	31045.011719
2470.246094	30777.242188
2468.758789	30705.298828
2467.270508	31294.529297
2465.782227	31227.542969
2464.292969	31093.160156
2462.803711	31376.792969
2461.313477	31168.298828
2459.823242	31197.414063
2458.333008	31162.519531
2456.841797	31255.589844
2455.350586	31119.703125
2453.859375	31500.476563
2452.367188	31499.171875
2450.875000	31349.863281
2449.381836	31684.878906
2447.888672	31515.419922
2446.395508	31314.113281
2444.901367	31601.828125
2443.407227	31509.777344
2441.912109	31511.810547
2440.417969	31434.933594
2438.921875	31507.472656
2437.425781	31591.716797
2435.929688	31722.888672
2434.433594	31679.566406
2432.936523	31552.427734
2431.439453	31557.777344
2429.941406	31584.906250
2428.443359	31580.185547
2426.944336	31811.640625
2425.446289	31619.306641
2423.946289	31741.806641
2422.447266	31701.890625
2420.947266	31610.121094
2419.446289	31513.375000
2417.945313	31593.955078
2416.444336	31998.859375
2414.942383	31397.261719
2413.440430	31892.246094
2411.938477	31969.291016
2410.435547	31810.783203
2408.932617	31790.951172
2407.429688	31734.400391
2405.925781	31757.986328
2404.420898	31846.632813
2402.916016	32015.302734
2401.411133	31688.566406
2399.906250	31815.500000
2398.400391	32034.044922
2396.893555	31940.849609
2395.387695	32157.578125
2393.880859	32117.689453
2392.373047	31941.275391
2390.865234	32137.851563
2389.357422	32257.763672
2387.848633	32123.037109
2386.339844	32550.626953
2384.830078	32321.095703
2383.320313	31912.117188
2381.810547	32051.865234
2380.299805	32143.347656
2378.789063	32108.517578
2377.278320	32258.064453
2375.766602	32113.626953
2374.254883	32505.455078
2372.742188	32168.505859
2371.229492	32186.792969
2369.715820	32044.167969
2368.203125	32677.718750
2366.688477	32556.587891
2365.174805	32518.388672
2363.660156	32458.666016
2362.144531	32662.376953
2360.628906	32319.427734
2359.113281	32607.509766
2357.596680	32569.332031
2356.080078	32665.220703
2354.563477	32746.167969
2353.045898	32746.017578
2351.528320	32492.855469
2350.009766	32512.603516
2348.491211	32970.335938
2346.971680	32768.523438
2345.452148	32581.681641
2343.932617	32528.707031
2342.413086	32523.638672
2340.891602	32815.695313
2339.371094	33082.843750
2337.849609	32996.785156
2336.328125	32813.449219
2334.805664	32885.804688
2333.283203	33091.648438
2331.760742	33190.253906
2330.237305	33051.535156
2328.712891	33257.171875
2327.189453	33276.597656
2325.665039	33172.531250
2324.139648	32903.914063
2322.614258	32903.660156
2321.088867	33219.277344
2319.562500	33197.558594
2318.036133	33216.953125
2316.509766	33216.609375
2314.982422	33186.675781
2313.455078	33237.269531
2311.926758	33222.125000
2310.398438	33215.199219
2308.869141	33293.644531
2307.339844	33404.871094
2305.810547	33394.613281
2304.280273	33427.007813
2302.750000	33447.902344
2301.218750	33570.441406
2299.688477	33329.003906
2298.156250	33548.191406
2296.624023	33777.097656
2295.091797	33576.730469
2293.559570	33456.707031
2292.026367	33287.628906
2290.492188	33264.296875
2288.958984	33288.429688
2287.423828	33644.625000
2285.889648	33510.000000
2284.354492	33556.929688
2282.818359	33513.933594
2281.283203	33547.757813
2279.746094	33581.562500
2278.209961	33683.945313
2276.672852	33556.031250
2275.134766	33661.628906
2273.596680	33695.355469
2272.058594	33593.636719
2270.519531	33387.570313
2268.980469	33612.132813
2267.441406	33953.964844
2265.901367	33624.082031
2264.361328	33916.839844
2262.820313	33963.449219
2261.279297	33822.734375
2259.737305	33813.980469
2258.195313	33863.824219
2256.653320	33915.269531
2255.110352	34166.808594
2253.567383	33928.609375
2252.024414	34155.613281
2250.480469	33738.707031
2248.935547	34001.394531
2247.390625	33937.335938
2245.845703	34086.117188
2244.300781	34035.058594
2242.754883	34057.085938
2241.208008	34082.343750
2239.661133	33698.644531
2238.114258	33900.816406
2236.566406	34276.425781
2235.018555	34308.074219
2233.470703	34625.015625
2231.921875	34392.382813
2230.373047	34166.343750
2228.823242	34564.058594
2227.273438	34487.078125
2225.722656	34209.375000
2224.171875	34459.468750
2222.621094	34507.160156
2221.069336	34721.449219
2219.517578	34639.656250
2217.964844	34823.074219
2216.412109	34325.859375
2214.859375	34667.628906
2213.305664	34627.929688
2211.751953	34741.691406
2210.197266	34731.050781
2208.642578	34773.691406
2207.086914	34771.109375
2205.531250	34787.894531
2203.975586	34961.136719
2202.418945	35295.554688
2200.862305	34957.476563
2199.305664	34634.074219
2197.748047	35123.007813
2196.189453	35258.867188
2194.630859	35312.515625
2193.072266	35300.113281
2191.512695	35266.785156
2189.953125	35468.437500
2188.393555	35729.511719
2186.833008	35581.882813
2185.272461	35612.828125
2183.710938	35486.203125
2182.149414	35669.839844
2180.586914	35478.984375
2179.024414	35506.699219
2177.461914	35818.656250
2175.898438	35481.792969
2174.334961	35522.316406
2172.770508	35455.292969
2171.206055	35689.921875
2169.641602	35223.511719
2168.076172	35600.777344
2166.509766	35743.796875
2164.944336	36042.199219
2163.377930	36221.871094
2161.810547	35831.199219
2160.243164	35879.515625
2158.675781	36083.097656
2157.107422	36057.687500
2155.538086	36077.089844
2153.969727	36062.886719
2152.400391	35784.800781
2150.830078	35954.546875
2149.259766	36232.898438
2147.689453	35943.789063
2146.118164	36172.464844
2144.546875	36212.546875
2142.974609	36311.683594
2141.402344	36247.933594
