#Wave		#Intensity
3550.240234	28346.683594
3549.007813	28521.916016
3547.776367	28568.794922
3546.543945	28271.449219
3545.311523	28342.791016
3544.078125	28570.859375
3542.844727	28599.357422
3541.611328	28705.167969
3540.377930	28511.853516
3539.143555	28479.314453
3537.909180	28509.828125
3536.674805	28524.058594
3535.440430	28540.314453
3534.205078	28347.226563
3532.969727	28593.113281
3531.734375	28729.189453
3530.499023	28694.597656
3529.262695	28584.884766
3528.026367	28678.234375
3526.790039	28834.460938
3525.552734	28714.630859
3524.315430	28335.156250
3523.078125	28592.767578
3521.840820	28667.746094
3520.602539	28777.158203
3519.364258	28993.955078
3518.125977	28914.761719
3516.886719	28746.443359
3515.648438	28817.238281
3514.409180	28788.757813
3513.168945	28924.306641
3511.929688	28855.318359
3510.689453	28755.996094
3509.449219	28859.076172
3508.208984	28741.580078
3506.967773	28974.068359
3505.726563	29089.160156
3504.485352	28900.914063
3503.243164	29028.093750
3502.001953	29009.701172
3500.758789	29017.580078
3499.516602	28730.511719
3498.274414	29156.521484
3497.031250	29198.681641
3495.788086	29026.824219
3494.543945	29254.681641
3493.300781	29008.214844
3492.056641	29304.566406
3490.811523	29023.898438
3489.567383	29255.578125
3488.322266	29140.365234
3487.077148	29214.681641
3485.832031	29371.593750
3484.585938	29443.806641
3483.339844	29385.044922
3482.093750	29277.968750
3480.847656	29432.701172
3479.600586	29361.892578
3478.353516	29385.707031
3477.106445	29387.373047
3475.858398	29714.955078
3474.610352	29364.544922
3473.362305	29235.492188
3472.114258	29532.724609
3470.865234	29538.361328
3469.616211	29662.560547
3468.367188	29752.546875
3467.117188	29537.156250
3465.868164	29562.855469
3464.617188	29488.146484
3463.367188	29702.541016
3462.117188	29623.812500
3460.866211	29605.314453
3459.614258	29424.320313
3458.363281	29265.464844
3457.111328	29603.986328
3455.859375	29693.755859
3454.607422	29548.966797
3453.354492	29582.589844
3452.102539	29782.490234
3450.848633	29844.083984
3449.595703	29707.386719
3448.341797	29660.843750
3447.087891	29558.269531
3445.833984	29827.986328
3444.580078	29665.384766
3443.325195	29826.927734
3442.070313	29804.394531
3440.814453	29841.855469
3439.559570	29863.302734
3438.303711	29912.718750
3437.046875	29860.199219
3435.791016	29705.808594
3434.534180	29631.378906
3433.277344	29968.351563
3432.020508	29822.013672
3430.762695	29903.292969
3429.504883	29884.748047
3428.247070	30069.720703
3426.988281	29795.812500
3425.730469	29857.066406
3424.471680	29962.158203
3423.211914	29566.841797
3421.953125	29777.574219
3420.693359	30133.666016
3419.432617	29690.753906
3418.172852	29799.730469
3416.912109	29892.728516
3415.651367	29882.158203
3414.390625	30056.693359
3413.128906	29833.162109
3411.867188	29878.308594
3410.605469	29965.201172
3409.343750	29883.019531
3408.081055	29922.148438
3406.818359	29927.466797
3405.554688	29887.070313
3404.291992	29791.058594
3403.028320	29770.568359
3401.764648	29728.236328
3400.500000	30098.916016
3399.236328	29834.193359
3397.971680	30026.056641
3396.706055	29592.800781
3395.441406	29354.144531
3394.175781	29922.814453
3392.909180	29844.800781
3391.643555	29677.605469
3390.376953	29799.859375
3389.110352	29579.238281
3387.843750	29741.076172
3386.576172	29726.554688
3385.308594	29737.779297
3384.041016	29560.910156
3382.773438	29651.337891
3381.504883	29715.992188
3380.236328	29778.638672
3378.966797	29882.792969
3377.698242	30044.248047
3376.428711	29869.503906
3375.158203	29975.535156
3373.888672	29737.636719
3372.618164	29958.244141
3371.347656	29554.511719
3370.077148	29723.703125
3368.805664	29713.132813
3367.534180	29852.597656
3366.262695	29841.996094
3364.990234	29705.109375
3363.717773	29990.458984
3362.445313	29918.681641
3361.172852	29900.173828
3359.899414	29700.294922
3358.625977	29798.128906
3357.352539	29665.355469
3356.078125	29635.087891
3354.803711	29910.134766
3353.529297	29801.046875
3352.254883	29656.566406
3350.979492	29602.691406
3349.704102	29781.058594
3348.428711	30065.585938
3347.152344	29936.898438
3345.875977	30048.193359
3344.599609	29901.865234
3343.322266	29722.179688
3342.044922	29971.011719
3340.767578	29773.701172
3339.490234	29747.380859
3338.211914	29827.126953
3336.933594	30128.712891
3335.655273	30088.580078
3334.375977	30144.630859
3333.097656	30110.392578
3331.817383	29840.751953
3330.538086	29938.000000
3329.257813	29882.250000
3327.977539	30146.078125
3326.697266	30196.142578
3325.416016	30069.816406
3324.134766	29965.095703
3322.853516	30017.115234
3321.572266	30065.191406
3320.290039	30244.416016
3319.007813	30268.923828
3317.724609	29970.521484
3316.442383	29828.771484
3315.159180	30140.884766
3313.875000	30022.621094
3312.591797	30215.279297
3311.307617	30407.847656
3310.023438	30490.884766
3308.738281	30644.218750
3307.454102	30471.261719
3306.167969	30495.628906
3304.882813	30410.640625
3303.596680	30571.650391
3302.310547	30262.236328
3301.024414	30468.078125
3299.738281	30318.783203
3298.451172	30200.757813
3297.164063	30201.724609
3295.875977	30436.623047
3294.587891	30492.101563
3293.299805	30578.728516
3292.011719	30766.615234
3290.722656	30116.914063
3289.433594	30622.212891
3288.144531	30554.921875
3286.855469	30394.232422
3285.565430	30597.498047
3284.275391	30921.289063
3282.984375	30408.566406
3281.694336	30887.812500
3280.402344	30919.683594
3279.111328	30603.613281
3277.819336	30880.378906
3276.528320	30731.537109
3275.235352	30907.138672
3273.943359	31282.673828
3272.650391	30687.289063
3271.357422	30775.421875
3270.063477	31096.384766
3268.770508	30833.205078
3267.476563	30661.310547
3266.181641	30947.164063
3264.887695	31056.447266
3263.592773	31130.787109
3262.296875	30646.955078
3261.001953	31002.287109
3259.706055	31047.521484
3258.410156	31129.527344
3257.113281	30977.212891
3255.816406	30962.402344
3254.519531	30833.412109
3253.222656	30710.281250
3251.924805	31010.845703
3250.626953	30916.734375
3249.329102	30981.212891
3248.030273	30997.330078
3246.732422	31092.677734
3245.432617	31321.300781
3244.133789	30956.759766
3242.833984	30762.339844
3241.534180	31203.269531
3240.234375	31182.615234
3238.933594	31187.058594
3237.632813	31353.578125
3236.331055	30902.699219
3235.030273	31375.863281
3233.728516	30957.957031
3232.426758	31292.082031
3231.124023	31479.572266
3229.821289	31094.677734
3228.518555	31143.414063
3227.215820	31263.386719
3225.912109	31475.730469
3224.608398	31100.800781
3223.303711	31122.531250
3222.000000	31303.960938
3220.695313	31167.875000
3219.389648	31216.490234
3218.084961	31428.531250
3216.779297	31246.359375
3215.473633	30897.046875
3214.166992	31256.968750
3212.860352	31257.462891
3211.553711	31231.062500
3210.246094	31342.931641
3208.939453	31107.253906
3207.631836	31038.669922
3206.323242	31179.279297
3205.015625	31164.421875
3203.707031	31143.812500
3202.397461	31159.644531
3201.088867	31307.751953
3199.779297	31266.029297
3198.468750	31312.472656
3197.159180	31324.406250
3195.848633	31267.375000
3194.538086	31179.726563
3193.226563	31540.119141
3191.916016	31190.208984
3190.603516	31326.527344
3189.291992	30871.595703
3187.979492	31375.169922
3186.666992	31360.265625
3185.354492	31006.962891
3184.041016	31273.126953
3182.727539	31170.339844
3181.414063	31579.626953
3180.099609	31362.205078
3178.785156	31492.439453
3177.470703	31097.570313
3176.156250	31220.164063
3174.840820	31014.460938
3173.525391	31280.103516
3172.208984	31169.847656
3170.893555	31145.457031
3169.576172	31014.304688
3168.259766	31313.998047
3166.942383	31095.199219
3165.625000	30886.025391
3164.307617	31151.242188
3162.989258	30985.945313
3161.670898	30744.564453
3160.352539	30895.410156
3159.033203	31108.982422
3157.714844	30892.464844
3156.394531	30927.128906
3155.075195	30908.527344
3153.754883	31015.412109
3152.434570	31325.634766
3151.113281	30989.578125
3149.791992	30982.363281
3148.470703	30906.767578
3147.149414	30985.027344
3145.827148	31228.425781
3144.504883	31460.318359
3143.182617	30874.177734
3141.859375	31068.093750
3140.536133	31489.535156
3139.212891	31076.361328
3137.888672	31053.943359
3136.564453	31116.832031
3135.240234	31149.365234
3133.915039	31011.363281
3132.589844	30812.808594
3131.264648	31025.287109
3129.939453	30953.666016
3128.613281	31207.648438
3127.287109	31120.871094
3125.959961	30803.312500
3124.632813	30869.878906
3123.305664	31271.134766
3121.978516	31103.113281
3120.650391	31175.222656
3119.322266	31349.343750
3117.993164	31334.447266
3116.665039	31191.109375
3115.335938	31149.812500
3114.005859	31338.867188
3112.676758	31021.962891
3111.346680	31099.613281
3110.015625	31288.535156
3108.685547	31175.568359
3107.354492	31300.261719
3106.022461	31449.402344
3104.691406	31212.064453
3103.359375	30993.679688
3102.027344	31340.597656
3100.694336	31244.708984
3099.361328	31243.019531
3098.028320	31088.830078
3096.695313	31264.103516
3095.361328	31074.220703
3094.027344	31008.591797
3092.692383	31136.726563
3091.357422	31093.673828
3090.022461	31103.279297
3088.687500	31244.447266
3087.351563	31406.216797
3086.015625	31359.371094
3084.678711	31397.064453
3083.342773	31380.281250
3082.005859	31624.457031
3080.667969	31607.621094
3079.331055	31543.876953
3077.993164	31489.539063
3076.654297	31463.359375
3075.315430	31832.845703
3073.976563	31692.232422
3072.637695	31714.742188
3071.298828	31744.734375
3069.958984	31838.404297
3068.618164	31534.958984
3067.278320	31939.464844
3065.937500	31589.332031
3064.595703	32017.957031
3063.254883	31840.113281
3061.913086	31817.621094
3060.571289	31329.429688
3059.228516	31815.664063
3057.885742	31806.269531
3056.542969	31770.708984
3055.200195	31830.458984
3053.856445	32007.865234
3052.511719	31651.037109
3051.167969	31568.853516
3049.823242	31404.568359
3048.478516	31636.017578
3047.132813	31999.832031
3045.788086	31716.162109
3044.441406	31660.154297
3043.095703	31783.166016
3041.749023	31717.839844
3040.402344	31779.271484
3039.055664	31732.603516
3037.708008	31570.462891
3036.360352	31724.992188
3035.011719	31957.644531
3033.663086	31847.675781
3032.314453	31702.394531
3030.965820	31845.570313
3029.616211	31665.009766
3028.266602	32165.179688
3026.916992	31802.416016
3025.566406	31692.619141
3024.215820	31813.308594
3022.865234	31753.718750
3021.513672	31506.548828
3020.162109	31798.033203
3018.809570	31710.628906
3017.458008	31519.320313
3016.105469	31803.160156
3014.751953	31728.794922
3013.399414	31511.640625
3012.045898	31645.064453
3010.691406	31693.138672
3009.336914	31817.181641
3007.982422	31594.640625
3006.627930	31787.187500
3005.272461	31605.500000
3003.916992	31416.488281
3002.561523	31670.023438
3001.205078	31545.859375
2999.848633	31902.857422
2998.492188	31582.593750
2997.134766	31702.667969
2995.777344	31451.013672
2994.419922	31497.109375
2993.061523	31304.761719
2991.703125	31546.724609
2990.344727	31256.541016
2988.985352	31760.650391
2987.625977	31490.859375
2986.266602	31267.343750
2984.906250	31675.107422
2983.545898	31562.355469
2982.185547	31313.148438
2980.824219	31467.939453
2979.462891	31532.310547
2978.101563	31456.552734
2976.739258	31373.457031
2975.376953	31465.429688
2974.014648	31367.626953
2972.651367	31454.027344
2971.288086	31341.539063
2969.924805	31641.416016
2968.560547	31573.095703
2967.196289	31635.431641
2965.832031	31583.695313
2964.466797	31456.582031
2963.101563	31482.121094
2961.736328	31500.292969
2960.370117	31900.671875
2959.003906	31424.533203
2957.637695	31505.142578
2956.270508	31554.494141
2954.903320	31612.998047
2953.535156	32067.914063
2952.167969	31667.523438
2950.799805	31678.250000
2949.430664	31698.138672
2948.062500	31776.689453
2946.692383	31728.710938
2945.323242	31695.414063
2943.953125	31682.283203
2942.583008	31786.396484
2941.212891	31727.458984
2939.841797	31950.517578
2938.470703	31809.187500
2937.099609	31695.375000
2935.727539	32020.728516
2934.355469	31665.457031
2932.982422	31954.080078
2931.609375	32185.882813
2930.236328	32274.994141
2928.863281	31777.449219
2927.489258	31696.697266
2926.115234	32123.765625
2924.740234	32117.833984
2923.366211	31925.683594
2921.990234	31967.251953
2920.615234	32050.767578
2919.239258	31982.816406
2917.863281	32141.062500
2916.486328	32060.351563
2915.109375	32061.712891
2913.732422	32046.667969
2912.355469	32161.000000
2910.977539	32016.589844
2909.599609	31968.771484
2908.220703	32263.291016
2906.841797	32362.882813
2905.462891	32156.671875
2904.083008	32136.146484
2902.703125	32181.113281
2901.323242	32060.560547
2899.942383	31972.791016
2898.561523	31923.232422
2897.180664	32362.548828
2895.798828	32423.742188
2894.416992	32410.427734
2893.035156	32235.494141
2891.652344	32296.664063
2890.269531	32236.187500
2888.886719	32625.773438
2887.502930	32311.250000
2886.119141	32180.066406
2884.735352	32373.531250
2883.350586	32162.621094
2881.965820	32330.615234
2880.581055	32208.601563
2879.195313	32409.103516
2877.809570	32171.210938
2876.422852	32402.398438
2875.036133	32081.343750
2873.649414	32325.105469
2872.262695	32416.755859
2870.875000	32099.539063
2869.487305	32570.978516
2868.098633	32333.425781
2866.709961	32453.892578
2865.321289	32203.828125
2863.931641	32241.152344
2862.541992	32309.162109
2861.152344	32368.105469
2859.761719	32073.156250
2858.371094	32500.335938
2856.980469	31992.556641
2855.588867	32433.974609
2854.197266	32191.587891
2852.805664	32084.558594
2851.413086	32141.630859
2850.020508	32025.646484
2848.627930	32212.433594
2847.234375	32143.320313
2845.840820	31865.318359
2844.447266	31844.933594
2843.052734	31939.761719
2841.658203	31858.169922
2840.262695	31695.650391
2838.867188	31955.925781
2837.471680	31816.833984
2836.075195	31676.007813
2834.679688	31740.160156
2833.282227	31843.814453
2831.885742	31665.345703
2830.488281	31815.662109
2829.089844	31780.939453
2827.692383	31670.828125
2826.293945	31553.587891
2824.894531	31461.523438
2823.496094	31478.935547
2822.096680	31749.222656
2820.696289	31666.132813
2819.296875	31393.060547
2817.895508	31457.054688
2816.495117	31528.181641
2815.093750	31249.958984
2813.692383	31484.068359
2812.290039	31519.318359
2810.888672	31278.882813
2809.485352	31366.056641
2808.083008	31429.923828
2806.679688	31849.710938
2805.276367	31502.121094
2803.872070	31465.781250
2802.467773	31506.312500
2801.063477	31368.126953
2799.658203	31381.859375
2798.252930	31331.283203
2796.847656	31382.507813
2795.441406	31289.105469
2794.035156	31475.951172
2792.627930	31455.720703
2791.220703	31230.351563
2789.813477	31570.441406
2788.406250	31065.216797
2786.998047	31333.869141
2785.589844	31425.957031
2784.180664	31550.066406
2782.771484	31460.361328
2781.362305	31368.916016
2779.952148	31763.554688
2778.541992	31518.998047
2777.131836	31416.919922
2775.720703	31652.908203
2774.309570	31565.070313
2772.897461	31646.197266
2771.486328	31227.738281
2770.074219	31849.201172
2768.661133	31368.701172
2767.248047	31424.914063
2765.834961	31818.533203
2764.420898	31652.658203
2763.006836	31705.201172
2761.592773	31523.457031
2760.177734	31522.769531
2758.762695	31298.583984
2757.347656	31711.138672
2755.931641	31426.730469
2754.515625	31688.382813
2753.099609	31746.117188
2751.682617	31375.093750
2750.265625	31842.009766
2748.847656	31605.712891
2747.430664	31560.720703
2746.011719	31375.929688
2744.593750	31838.833984
2743.174805	31945.939453
2741.754883	31725.810547
2740.335938	31585.351563
2738.916016	31899.246094
2737.495117	31882.513672
2736.075195	32030.095703
2734.653320	31730.714844
2733.232422	31645.156250
2731.810547	31856.234375
2730.388672	31685.957031
2728.965820	31727.513672
2727.542969	31744.347656
2726.120117	31505.429688
2724.697266	31479.984375
2723.273438	31590.289063
2721.848633	31788.656250
2720.423828	31424.849609
2718.999023	31698.898438
2717.574219	31764.998047
2716.148438	31677.884766
2714.722656	31870.685547
2713.295898	31646.318359
2711.870117	31529.380859
2710.442383	31767.796875
2709.015625	31731.769531
2707.587891	31400.406250
2706.159180	31534.968750
2704.731445	31606.205078
2703.301758	31573.753906
2701.873047	31585.222656
2700.443359	31863.574219
2699.013672	31615.156250
2697.583984	31696.796875
2696.153320	31632.765625
2694.721680	31686.287109
2693.291016	31515.310547
2691.859375	31421.556641
2690.426758	31203.398438
2688.995117	31614.445313
2687.562500	31306.992188
2686.128906	31253.654297
2684.695313	31608.337891
2683.261719	31663.484375
2681.828125	31827.113281
2680.393555	31897.919922
2678.958008	31424.650391
2677.523438	31644.169922
2676.087891	31512.140625
2674.651367	31663.349609
2673.215820	31325.160156
2671.778320	31558.451172
2670.341797	31447.521484
2668.904297	31556.671875
2667.466797	31316.601563
2666.028320	31792.255859
2664.589844	31587.138672
2663.151367	31352.462891
2661.711914	31328.935547
2660.272461	31511.167969
2658.833008	31015.195313
2657.392578	31152.095703
2655.952148	31494.521484
2654.510742	31274.136719
2653.069336	31407.376953
2651.627930	31338.587891
2650.185547	31313.343750
2648.743164	31195.882813
2647.300781	31294.201172
2645.857422	30957.646484
2644.414063	31403.740234
2642.970703	31241.162109
2641.526367	31478.398438
2640.082031	31486.154297
2638.636719	31387.941406
2637.191406	31458.230469
2635.746094	31287.144531
2634.299805	31272.363281
2632.853516	31453.685547
2631.406250	31289.658203
2629.959961	31526.380859
2628.511719	31497.669922
2627.064453	31306.007813
2625.616211	31530.406250
2624.167969	31534.628906
2622.718750	31336.164063
2621.269531	31494.564453
2619.819336	31614.791016
2618.370117	31672.636719
2616.918945	31555.660156
2615.468750	31561.580078
2614.017578	31513.873047
2612.566406	31352.052734
2611.114258	31271.568359
2609.662109	31319.023438
2608.209961	31585.906250
2606.756836	31472.589844
2605.303711	31469.861328
2603.849609	31299.644531
2602.395508	31284.873047
2600.941406	31466.847656
2599.486328	31277.769531
2598.031250	31225.056641
2596.576172	31487.951172
2595.120117	31336.931641
2593.664063	31363.521484
2592.207031	31441.789063
2590.750000	31346.015625
2589.292969	31436.298828
2587.834961	31631.572266
2586.376953	31377.435547
2584.918945	31319.625000
2583.459961	31318.619141
2582.000977	31128.390625
2580.541016	31166.982422
2579.081055	31460.009766
2577.621094	31469.269531
2576.161133	31358.232422
2574.699219	31394.996094
2573.238281	31107.115234
2571.776367	31200.582031
2570.314453	31055.376953
2568.851563	30960.013672
2567.389648	30890.433594
2565.925781	30889.501953
2564.462891	31017.191406
2562.998047	30911.632813
2561.534180	31236.371094
2560.069336	31195.925781
2558.604492	30946.480469
2557.138672	31168.183594
2555.672852	31235.656250
2554.207031	30885.375000
2552.740234	31204.474609
2551.273438	31288.988281
2549.806641	30897.894531
2548.338867	30967.044922
2546.871094	31102.839844
2545.402344	31212.923828
2543.933594	30735.076172
2542.464844	31144.177734
2540.995117	30984.283203
2539.525391	31008.890625
2538.054688	30789.351563
2536.583984	30674.035156
2535.113281	30954.642578
2533.641602	30760.865234
2532.169922	30848.585938
2530.698242	30573.083984
2529.225586	30896.037109
2527.752930	30842.199219
2526.279297	30582.234375
2524.805664	30731.191406
2523.332031	30646.775391
2521.857422	30749.669922
2520.382813	30801.447266
2518.908203	30960.396484
2517.432617	30590.203125
2515.956055	30820.548828
2514.480469	30792.330078
2513.003906	30602.636719
2511.526367	30778.412109
2510.049805	30913.320313
2508.571289	30406.099609
2507.093750	30383.099609
2505.615234	30643.626953
2504.135742	30410.113281
2502.657227	30577.167969
2501.177734	30323.425781
2499.697266	30680.361328
2498.216797	30511.494141
2496.736328	30512.218750
2495.254883	30433.291016
2493.773438	30461.140625
2492.291992	30607.539063
2490.809570	30609.921875
2489.327148	30426.072266
2487.843750	30480.962891
2486.360352	30625.503906
2484.876953	30303.064453
2483.392578	30305.505859
2481.908203	30497.314453
2480.423828	30406.728516
2478.938477	30437.861328
2477.453125	30372.673828
2475.966797	30782.152344
2474.480469	30272.783203
2472.993164	30420.396484
2471.506836	30475.101563
2470.018555	30571.958984
2468.531250	30523.687500
2467.042969	30325.337891
2465.553711	30727.333984
2464.065430	30529.025391
2462.576172	30512.822266
2461.085938	30730.810547
2459.595703	30470.324219
2458.105469	30543.386719
2456.614258	30533.917969
2455.123047	30611.970703
2453.630859	30627.722656
2452.139648	30323.839844
2450.646484	30469.150391
2449.154297	30500.048828
2447.661133	30554.462891
2446.166992	30229.050781
2444.672852	30525.431641
2443.178711	30279.130859
2441.683594	30143.781250
2440.188477	30023.607422
2438.693359	30553.019531
2437.197266	30097.208984
2435.701172	30014.035156
2434.205078	30086.869141
2432.708008	30117.746094
2431.209961	30540.841797
2429.712891	30341.998047
2428.213867	30401.259766
2426.715820	30262.843750
2425.216797	30203.199219
2423.717773	30079.966797
2422.217773	30283.156250
2420.717773	30103.070313
2419.216797	29914.708984
2417.715820	29994.021484
2416.214844	29854.265625
2414.713867	30349.755859
2413.210938	30049.548828
2411.708984	30215.609375
2410.206055	30414.984375
2408.703125	30091.605469
2407.199219	29873.560547
2405.695313	29912.642578
2404.191406	29824.894531
2402.686523	29883.980469
2401.181641	29978.054688
2399.675781	29953.703125
2398.169922	29941.029297
2396.664063	29883.367188
2395.157227	29839.058594
2393.650391	29673.185547
2392.142578	29790.462891
2390.634766	30109.103516
2389.126953	30336.044922
2387.618164	30176.857422
2386.109375	29904.638672
2384.599609	29886.992188
2383.089844	29585.054688
2381.580078	29973.050781
2380.069336	29897.230469
2378.558594	29886.236328
2377.047852	29863.619141
2375.536133	29797.839844
2374.023438	29844.970703
2372.511719	29558.501953
2370.998047	29497.820313
2369.485352	29763.933594
2367.971680	29600.412109
2366.458008	29738.701172
2364.943359	29628.300781
2363.428711	29395.335938
2361.913086	29584.916016
2360.397461	29701.525391
2358.881836	29619.384766
2357.365234	29351.888672
2355.848633	29541.275391
2354.332031	29761.994141
2352.814453	29593.902344
2351.295898	29343.210938
2349.778320	29563.804688
2348.258789	29701.642578
2346.740234	29659.302734
2345.220703	29471.615234
2343.701172	29394.669922
2342.180664	29230.255859
2340.660156	29379.542969
2339.138672	29550.203125
2337.617188	29143.349609
2336.095703	29264.496094
2334.573242	29359.195313
2333.050781	28990.611328
2331.528320	28983.146484
2330.004883	29249.191406
2328.480469	29062.109375
2326.957031	29458.089844
2325.431641	29183.785156
2323.907227	29330.984375
2322.381836	29193.427734
2320.856445	28883.203125
2319.330078	29402.058594
2317.803711	28955.458984
2316.276367	28938.130859
2314.749023	28754.824219
2313.221680	28993.857422
2311.693359	28638.154297
2310.165039	29015.029297
2308.635742	29120.822266
2307.106445	28947.537109
2305.577148	28915.455078
2304.046875	28862.060547
2302.516602	29013.693359
2300.985352	28879.955078
2299.454102	28877.416016
2297.922852	29009.255859
2296.390625	28610.203125
2294.858398	29015.568359
2293.325195	28680.576172
2291.791992	29030.048828
2290.258789	29014.365234
2288.724609	28918.513672
2287.190430	29092.615234
2285.655273	28962.443359
2284.120117	28379.457031
2282.583984	28749.697266
2281.048828	28701.412109
2279.511719	28726.666016
2277.975586	28725.771484
2276.438477	28550.162109
2274.900391	28516.660156
2273.362305	28437.476563
2271.824219	28359.962891
2270.285156	28597.298828
2268.746094	28480.640625
2267.206055	28549.896484
2265.666016	28498.500000
2264.125977	28424.316406
2262.584961	28475.605469
2261.043945	28627.837891
2259.502930	28407.132813
2257.960938	28354.201172
2256.417969	28486.810547
2254.875000	28521.732422
2253.332031	28281.755859
2251.789063	28362.238281
2250.245117	28124.046875
2248.700195	28357.294922
2247.155273	28203.712891
2245.610352	28248.386719
2244.064453	28356.367188
2242.518555	28150.943359
2240.972656	28340.046875
2239.425781	28439.798828
2237.877930	28395.111328
2236.331055	28264.486328
2234.783203	28339.851563
2233.234375	28512.435547
2231.685547	28424.009766
2230.136719	27997.003906
2228.586914	28452.998047
2227.037109	28350.072266
2225.486328	28347.572266
2223.935547	27921.021484
2222.384766	28107.945313
2220.833008	28154.033203
2219.281250	28185.537109
2217.728516	28275.230469
2216.175781	28238.792969
2214.622070	28171.667969
2213.068359	28180.507813
2211.514648	28252.332031
2209.959961	27999.552734
2208.405273	28194.068359
2206.850586	27999.531250
2205.294922	28006.777344
2203.738281	28246.296875
2202.181641	27858.373047
2200.625000	28004.292969
2199.068359	27945.435547
2197.510742	27999.404297
2195.952148	28121.001953
2194.393555	28184.554688
2192.834961	27956.636719
2191.275391	27955.804688
2189.715820	28280.046875
2188.155273	27859.210938
2186.595703	28221.908203
2185.034180	28204.917969
2183.472656	27988.587891
2181.911133	28161.310547
2180.349609	28006.158203
2178.787109	27810.925781
2177.223633	28184.294922
2175.660156	28144.847656
2174.096680	28137.519531
2172.532227	28083.658203
2170.967773	28076.343750
2169.403320	28162.056641
2167.837891	28181.980469
2166.271484	27765.869141
2164.705078	28043.898438
2163.138672	28079.851563
2161.572266	28154.226563
2160.003906	27858.646484
2158.436523	28115.541016
2156.868164	27847.328125
2155.299805	27718.462891
2153.730469	27751.230469
2152.161133	27585.667969
2150.590820	28002.169922
2149.020508	27863.796875
2147.450195	27898.080078
2145.878906	27737.433594
2144.307617	27674.298828
2142.735352	27805.998047
2141.163086	27572.062500
