#Wave		#Intensity
3550.240234	15324.569336
3549.007813	14980.220703
3547.776367	15054.435547
3546.543945	15208.047852
3545.311523	15249.598633
3544.078125	15191.374023
3542.844727	15112.819336
3541.611328	15072.959961
3540.377930	15171.463867
3539.143555	15143.810547
3537.909180	15209.715820
3536.674805	15230.859375
3535.440430	15306.877930
3534.205078	15193.853516
3532.969727	15125.578125
3531.734375	15230.005859
3530.499023	15377.039063
3529.262695	15347.343750
3528.026367	15197.879883
3526.790039	15178.381836
3525.552734	15288.765625
3524.315430	15409.245117
3523.078125	15154.410156
3521.840820	15339.758789
3520.602539	15439.868164
3519.364258	15548.041992
3518.125977	15376.483398
3516.886719	15490.699219
3515.648438	15373.920898
3514.409180	15623.785156
3513.168945	15577.898438
3511.929688	15509.758789
3510.689453	15528.683594
3509.449219	15333.091797
3508.208984	15386.436523
3506.967773	15387.165039
3505.726563	15466.761719
3504.485352	15344.132813
3503.243164	15486.366211
3502.001953	15430.476563
3500.758789	15621.120117
3499.516602	15565.222656
3498.274414	15497.228516
3497.031250	15261.662109
3495.788086	15597.527344
3494.543945	15559.840820
3493.300781	15606.923828
3492.056641	15619.686523
3490.811523	15501.331055
3489.567383	15604.857422
3488.322266	15732.531250
3487.077148	15632.365234
3485.832031	15693.467773
3484.585938	15607.454102
3483.339844	15696.734375
3482.093750	15787.988281
3480.847656	15615.420898
3479.600586	15734.833984
3478.353516	15723.366211
3477.106445	15824.589844
3475.858398	15784.938477
3474.610352	15863.974609
3473.362305	15944.987305
3472.114258	15855.066406
3470.865234	15718.951172
3469.616211	15908.458008
3468.367188	15766.358398
3467.117188	15819.171875
3465.868164	15884.009766
3464.617188	15681.766602
3463.367188	15991.514648
3462.117188	15939.859375
3460.866211	16072.832031
3459.614258	15652.044922
3458.363281	15817.110352
3457.111328	15857.774414
3455.859375	15880.375000
3454.607422	16111.422852
3453.354492	15993.676758
3452.102539	16052.291016
3450.848633	15872.509766
3449.595703	16109.357422
3448.341797	16125.856445
3447.087891	16028.245117
3445.833984	16032.742188
3444.580078	16101.264648
3443.325195	16119.744141
3442.070313	16002.211914
3440.814453	16072.690430
3439.559570	15999.197266
3438.303711	16161.583008
3437.046875	15946.221680
3435.791016	16068.586914
3434.534180	16154.943359
3433.277344	16267.220703
3432.020508	16187.781250
3430.762695	16254.088867
3429.504883	16190.648438
3428.247070	16213.028320
3426.988281	16085.789063
3425.730469	16221.854492
3424.471680	16100.647461
3423.211914	16081.157227
3421.953125	15936.114258
3420.693359	16048.174805
3419.432617	16215.963867
3418.172852	16114.798828
3416.912109	16093.327148
3415.651367	16515.814453
3414.390625	16106.136719
3413.128906	16210.041016
3411.867188	16150.758789
3410.605469	16147.195313
3409.343750	16074.029297
3408.081055	16022.763672
3406.818359	16233.901367
3405.554688	16130.950195
3404.291992	16135.333008
3403.028320	16052.308594
3401.764648	16332.755859
3400.500000	16126.617188
3399.236328	16238.185547
3397.971680	16387.412109
3396.706055	16421.484375
3395.441406	16146.069336
3394.175781	16257.527344
3392.909180	16198.403320
3391.643555	15994.583984
3390.376953	16127.798828
3389.110352	16249.062500
3387.843750	15966.115234
3386.576172	16037.839844
3385.308594	16063.985352
3384.041016	15805.019531
3382.773438	16197.389648
3381.504883	16187.854492
3380.236328	16014.105469
3378.966797	16234.068359
3377.698242	16266.056641
3376.428711	16351.413086
3375.158203	16193.588867
3373.888672	16276.943359
3372.618164	16295.055664
3371.347656	16155.123047
3370.077148	16139.674805
3368.805664	16278.248047
3367.534180	16369.377930
3366.262695	16130.862305
3364.990234	16399.572266
3363.717773	16253.874023
3362.445313	16062.874023
3361.172852	16388.599609
3359.899414	16144.421875
3358.625977	16404.935547
3357.352539	16306.684570
3356.078125	16182.862305
3354.803711	16198.943359
3353.529297	16118.520508
3352.254883	16272.423828
3350.979492	16278.626953
3349.704102	16219.882813
3348.428711	16074.591797
3347.152344	16149.676758
3345.875977	16315.191406
3344.599609	16195.533203
3343.322266	16351.130859
3342.044922	16376.946289
3340.767578	16245.559570
3339.490234	16318.530273
3338.211914	16373.790039
3336.933594	16199.288086
3335.655273	16344.849609
3334.375977	16621.843750
3333.097656	16688.751953
3331.817383	16437.818359
3330.538086	16477.275391
3329.257813	16436.316406
3327.977539	16432.623047
3326.697266	16278.005859
3325.416016	16550.646484
3324.134766	16541.046875
3322.853516	16617.630859
3321.572266	16341.693359
3320.290039	16598.404297
3319.007813	16614.240234
3317.724609	16614.412109
3316.442383	16641.972656
3315.159180	16401.539063
3313.875000	16552.335938
3312.591797	16173.209961
3311.307617	16669.974609
3310.023438	16732.660156
3308.738281	16980.929688
3307.454102	16645.017578
3306.167969	16840.460938
3304.882813	16670.693359
3303.596680	16840.664063
3302.310547	16807.582031
3301.024414	16714.029297
3299.738281	16577.597656
3298.451172	16872.248047
3297.164063	16767.037109
3295.875977	16872.412109
3294.587891	16827.664063
3293.299805	17059.628906
3292.011719	16558.996094
3290.722656	16785.072266
3289.433594	16635.226563
3288.144531	16954.623047
3286.855469	16750.304688
3285.565430	16771.804688
3284.275391	16873.054688
3282.984375	16859.501953
3281.694336	16859.564453
3280.402344	16879.066406
3279.111328	16902.447266
3277.819336	17032.693359
3276.528320	16974.423828
3275.235352	16848.197266
3273.943359	17116.238281
3272.650391	16976.443359
3271.357422	17104.574219
3270.063477	17137.554688
3268.770508	17030.826172
3267.476563	17077.382813
3266.181641	17075.433594
3264.887695	17145.222656
3263.592773	17118.054688
3262.296875	17183.921875
3261.001953	16986.253906
3259.706055	17166.404297
3258.410156	17201.222656
3257.113281	17412.216797
3255.816406	17096.587891
3254.519531	17245.578125
3253.222656	17197.138672
3251.924805	17278.328125
3250.626953	17388.486328
3249.329102	17189.226563
3248.030273	17332.214844
3246.732422	17204.564453
3245.432617	17275.986328
3244.133789	17366.693359
3242.833984	17196.626953
3241.534180	17405.091797
3240.234375	17281.419922
3238.933594	17306.414063
3237.632813	17429.802734
3236.331055	17190.458984
3235.030273	17385.173828
3233.728516	17236.572266
3232.426758	17390.703125
3231.124023	17186.269531
3229.821289	17357.677734
3228.518555	17461.580078
3227.215820	17330.455078
3225.912109	17320.701172
3224.608398	17536.193359
3223.303711	17487.898438
3222.000000	17493.503906
3220.695313	17606.837891
3219.389648	17454.691406
3218.084961	17396.837891
3216.779297	17381.304688
3215.473633	17567.589844
3214.166992	17244.562500
3212.860352	17392.367188
3211.553711	17401.810547
3210.246094	17461.173828
3208.939453	17322.763672
3207.631836	17499.199219
3206.323242	17381.949219
3205.015625	17445.091797
3203.707031	17343.250000
3202.397461	17492.662109
3201.088867	17563.400391
3199.779297	17381.091797
3198.468750	17453.734375
3197.159180	17457.369141
3195.848633	17771.300781
3194.538086	17558.464844
3193.226563	17644.392578
3191.916016	17425.939453
3190.603516	17678.341797
3189.291992	17634.080078
3187.979492	17647.218750
3186.666992	17635.488281
3185.354492	17379.041016
3184.041016	17556.607422
3182.727539	17569.744141
3181.414063	17269.541016
3180.099609	17676.218750
3178.785156	17393.312500
3177.470703	17799.769531
3176.156250	17478.787109
3174.840820	17619.771484
3173.525391	17518.384766
3172.208984	17361.726563
3170.893555	17613.240234
3169.576172	17464.255859
3168.259766	17532.636719
3166.942383	17587.644531
3165.625000	17482.583984
3164.307617	17598.527344
3162.989258	17744.884766
3161.670898	17679.837891
3160.352539	17616.722656
3159.033203	17580.277344
3157.714844	17680.832031
3156.394531	17619.656250
3155.075195	17659.298828
3153.754883	17639.980469
3152.434570	17542.736328
3151.113281	17548.154297
3149.791992	17483.271484
3148.470703	17680.546875
3147.149414	17564.384766
3145.827148	17501.435547
3144.504883	17683.378906
3143.182617	17762.757813
3141.859375	17618.216797
3140.536133	17604.625000
3139.212891	17473.460938
3137.888672	17759.464844
3136.564453	17639.695313
3135.240234	17654.529297
3133.915039	17549.992188
3132.589844	17716.371094
3131.264648	17719.806641
3129.939453	17730.814453
3128.613281	17677.457031
3127.287109	17686.572266
3125.959961	17616.216797
3124.632813	17570.484375
3123.305664	17689.294922
3121.978516	17806.158203
3120.650391	17512.789063
3119.322266	17637.195313
3117.993164	17561.271484
3116.665039	17791.380859
3115.335938	17945.841797
3114.005859	17707.525391
3112.676758	17667.513672
3111.346680	17897.375000
3110.015625	17842.238281
3108.685547	17955.000000
3107.354492	17862.156250
3106.022461	17701.482422
3104.691406	17838.697266
3103.359375	17751.593750
3102.027344	18077.128906
3100.694336	18008.841797
3099.361328	17784.285156
3098.028320	17911.896484
3096.695313	18165.554688
3095.361328	17858.314453
3094.027344	18128.794922
3092.692383	17917.630859
3091.357422	17896.492188
3090.022461	17914.841797
3088.687500	17754.621094
3087.351563	18047.347656
3086.015625	18024.312500
3084.678711	17973.111328
3083.342773	18220.505859
3082.005859	18154.259766
3080.667969	18176.259766
3079.331055	18220.763672
3077.993164	18359.048828
3076.654297	18418.490234
3075.315430	18322.263672
3073.976563	18203.582031
3072.637695	18274.259766
3071.298828	18213.730469
3069.958984	18201.937500
3068.618164	18330.619141
3067.278320	18264.498047
3065.937500	18155.347656
3064.595703	18437.417969
3063.254883	18438.673828
3061.913086	18466.117188
3060.571289	18461.751953
3059.228516	18158.208984
3057.885742	18434.326172
3056.542969	18235.591797
3055.200195	18511.556641
3053.856445	18423.109375
3052.511719	18358.984375
3051.167969	18455.464844
3049.823242	18488.429688
3048.478516	18581.097656
3047.132813	18401.302734
3045.788086	18630.121094
3044.441406	18327.304688
3043.095703	18481.447266
3041.749023	18581.453125
3040.402344	18737.322266
3039.055664	18652.755859
3037.708008	18734.017578
3036.360352	18459.531250
3035.011719	18382.535156
3033.663086	18536.392578
3032.314453	18496.630859
3030.965820	18499.679688
3029.616211	18426.457031
3028.266602	18632.222656
3026.916992	18585.031250
3025.566406	18621.505859
3024.215820	18769.460938
3022.865234	18359.970703
3021.513672	18667.658203
3020.162109	18793.207031
3018.809570	18515.814453
3017.458008	18531.824219
3016.105469	18664.732422
3014.751953	18426.523438
3013.399414	18538.986328
3012.045898	18731.132813
3010.691406	18698.859375
3009.336914	18686.988281
3007.982422	18830.775391
3006.627930	18663.253906
3005.272461	18660.654297
3003.916992	18578.429688
3002.561523	18572.144531
3001.205078	18689.867188
2999.848633	18911.154297
2998.492188	18825.238281
2997.134766	18352.812500
2995.777344	18476.015625
2994.419922	18580.669922
2993.061523	18672.333984
2991.703125	18734.390625
2990.344727	18733.605469
2988.985352	18681.105469
2987.625977	18589.853516
2986.266602	18629.710938
2984.906250	18667.699219
2983.545898	18545.144531
2982.185547	18778.666016
2980.824219	18812.896484
2979.462891	18815.765625
2978.101563	18949.507813
2976.739258	18836.236328
2975.376953	18927.529297
2974.014648	18882.468750
2972.651367	19069.464844
2971.288086	19086.984375
2969.924805	18973.804688
2968.560547	18825.714844
2967.196289	19043.812500
2965.832031	19057.634766
2964.466797	19084.322266
2963.101563	18932.660156
2961.736328	18843.564453
2960.370117	19004.421875
2959.003906	18935.554688
2957.637695	19248.755859
2956.270508	19086.208984
2954.903320	19156.888672
2953.535156	19445.945313
2952.167969	19085.289063
2950.799805	19187.097656
2949.430664	19173.310547
2948.062500	19220.039063
2946.692383	19371.232422
2945.323242	19405.056641
2943.953125	19385.724609
2942.583008	19346.250000
2941.212891	19418.509766
2939.841797	19485.238281
2938.470703	19498.847656
2937.099609	19510.617188
2935.727539	19809.634766
2934.355469	19696.935547
2932.982422	19723.273438
2931.609375	19734.970703
2930.236328	19880.093750
2928.863281	19696.207031
2927.489258	19746.261719
2926.115234	19849.261719
2924.740234	19802.466797
2923.366211	19863.408203
2921.990234	19969.949219
2920.615234	19713.302734
2919.239258	19958.474609
2917.863281	19886.164063
2916.486328	19704.480469
2915.109375	19641.376953
2913.732422	19793.369141
2912.355469	19737.560547
2910.977539	19774.683594
2909.599609	19554.988281
2908.220703	19768.753906
2906.841797	20013.361328
2905.462891	19930.255859
2904.083008	19843.550781
2902.703125	19947.888672
2901.323242	19797.564453
2899.942383	19816.402344
2898.561523	19791.603516
2897.180664	19868.583984
2895.798828	20110.859375
2894.416992	19875.294922
2893.035156	20062.968750
2891.652344	20036.312500
2890.269531	20111.314453
2888.886719	20106.433594
2887.502930	20386.384766
2886.119141	20174.664063
2884.735352	20345.656250
2883.350586	20335.275391
2881.965820	20208.900391
2880.581055	20146.003906
2879.195313	19929.152344
2877.809570	20092.744141
2876.422852	20401.107422
2875.036133	20061.250000
2873.649414	20034.652344
2872.262695	19989.970703
2870.875000	19948.927734
2869.487305	20054.390625
2868.098633	19966.337891
2866.709961	20111.507813
2865.321289	19806.619141
2863.931641	19924.652344
2862.541992	20131.134766
2861.152344	20149.705078
2859.761719	19964.253906
2858.371094	20083.929688
2856.980469	20109.710938
2855.588867	20158.929688
2854.197266	20159.423828
2852.805664	20017.460938
2851.413086	20367.722656
2850.020508	20312.287109
2848.627930	20148.761719
2847.234375	20190.681641
2845.840820	20075.888672
2844.447266	19993.562500
2843.052734	19774.462891
2841.658203	19893.810547
2840.262695	19924.933594
2838.867188	19763.566406
2837.471680	19884.621094
2836.075195	19593.888672
2834.679688	19968.367188
2833.282227	19952.701172
2831.885742	19820.261719
2830.488281	19714.826172
2829.089844	19656.128906
2827.692383	19189.925781
2826.293945	19370.097656
2824.894531	19639.900391
2823.496094	19559.744141
2822.096680	19443.753906
2820.696289	19544.783203
2819.296875	19523.859375
2817.895508	19651.699219
2816.495117	19460.535156
2815.093750	19656.394531
2813.692383	19570.984375
2812.290039	19643.173828
2810.888672	19402.072266
2809.485352	19572.691406
2808.083008	19669.869141
2806.679688	19741.955078
2805.276367	19579.742188
2803.872070	19882.439453
2802.467773	19480.757813
2801.063477	19674.324219
2799.658203	19505.130859
2798.252930	19845.050781
2796.847656	19736.607422
2795.441406	19494.324219
2794.035156	19648.375000
2792.627930	19513.289063
2791.220703	19578.060547
2789.813477	19906.748047
2788.406250	19732.464844
2786.998047	19763.261719
2785.589844	19738.794922
2784.180664	19785.603516
2782.771484	19818.138672
2781.362305	19788.328125
2779.952148	19822.623047
2778.541992	19920.974609
2777.131836	20092.236328
2775.720703	19952.078125
2774.309570	19790.642578
2772.897461	20011.591797
2771.486328	19784.441406
2770.074219	20079.925781
2768.661133	20050.097656
2767.248047	20189.042969
2765.834961	20116.574219
2764.420898	20109.833984
2763.006836	19927.359375
2761.592773	20014.724609
2760.177734	19878.490234
2758.762695	19990.650391
2757.347656	19879.312500
2755.931641	20191.753906
2754.515625	20275.388672
2753.099609	20195.953125
2751.682617	20019.117188
2750.265625	20246.189453
2748.847656	20264.205078
2747.430664	20227.328125
2746.011719	20255.953125
2744.593750	20109.388672
2743.174805	20290.156250
2741.754883	20311.664063
2740.335938	20273.042969
2738.916016	20158.429688
2737.495117	20333.695313
2736.075195	20249.154297
2734.653320	20175.251953
2733.232422	20187.914063
2731.810547	20311.792969
2730.388672	20432.076172
2728.965820	20319.373047
2727.542969	20323.156250
2726.120117	20157.619141
2724.697266	20242.548828
2723.273438	20375.031250
2721.848633	20447.523438
2720.423828	20667.984375
2718.999023	20661.093750
2717.574219	20518.599609
2716.148438	20335.679688
2714.722656	20422.164063
2713.295898	20357.259766
2711.870117	20535.177734
2710.442383	20591.640625
2709.015625	20505.634766
2707.587891	20479.443359
2706.159180	20273.986328
2704.731445	20481.566406
2703.301758	20460.664063
2701.873047	20464.357422
2700.443359	20575.156250
2699.013672	20624.457031
2697.583984	20422.767578
2696.153320	20321.187500
2694.721680	20393.312500
2693.291016	20579.386719
2691.859375	20590.042969
2690.426758	20509.546875
2688.995117	20500.935547
2687.562500	20462.544922
2686.128906	20611.578125
2684.695313	20671.232422
2683.261719	20667.833984
2681.828125	20568.173828
2680.393555	20657.533203
2678.958008	20668.126953
2677.523438	20711.943359
2676.087891	20710.275391
2674.651367	20930.603516
2673.215820	20801.304688
2671.778320	20497.355469
2670.341797	20755.992188
2668.904297	20707.156250
2667.466797	20604.220703
2666.028320	20630.494141
2664.589844	20579.974609
2663.151367	20965.607422
2661.711914	20810.380859
2660.272461	20473.888672
2658.833008	20700.621094
2657.392578	20620.509766
2655.952148	20885.417969
2654.510742	20737.361328
2653.069336	20753.074219
2651.627930	20984.666016
2650.185547	20727.031250
2648.743164	20800.154297
2647.300781	20829.746094
2645.857422	20601.906250
2644.414063	20979.298828
2642.970703	20911.464844
2641.526367	20775.880859
2640.082031	20861.033203
2638.636719	20796.748047
2637.191406	20987.785156
2635.746094	21084.966797
2634.299805	20810.632813
2632.853516	21006.722656
2631.406250	20909.507813
2629.959961	20971.912109
2628.511719	21299.597656
2627.064453	20892.052734
2625.616211	21242.121094
2624.167969	20898.904297
2622.718750	21105.007813
2621.269531	21122.228516
2619.819336	21096.150391
2618.370117	21068.353516
2616.918945	21182.476563
2615.468750	21151.207031
2614.017578	21199.519531
2612.566406	21164.796875
2611.114258	21112.802734
2609.662109	21221.576172
2608.209961	21193.781250
2606.756836	21150.451172
2605.303711	21167.587891
2603.849609	21105.287109
2602.395508	20996.408203
2600.941406	21239.646484
2599.486328	20978.949219
2598.031250	21185.843750
2596.576172	21066.697266
2595.120117	21142.429688
2593.664063	21214.673828
2592.207031	21309.283203
2590.750000	21217.781250
2589.292969	21191.771484
2587.834961	21337.966797
2586.376953	21280.949219
2584.918945	21210.191406
2583.459961	21311.527344
2582.000977	21257.994141
2580.541016	21299.072266
2579.081055	21350.441406
2577.621094	21169.736328
2576.161133	21176.429688
2574.699219	21349.765625
2573.238281	21480.072266
2571.776367	21131.226563
2570.314453	21234.050781
2568.851563	21379.726563
2567.389648	21178.726563
2565.925781	21314.046875
2564.462891	21234.925781
2562.998047	21239.853516
2561.534180	21373.335938
2560.069336	21277.115234
2558.604492	21621.246094
2557.138672	21341.736328
2555.672852	21565.804688
2554.207031	21313.835938
2552.740234	21541.218750
2551.273438	21390.333984
2549.806641	21414.009766
2548.338867	21453.064453
2546.871094	21322.826172
2545.402344	21298.632813
2543.933594	21558.130859
2542.464844	21650.064453
2540.995117	21395.210938
2539.525391	21437.611328
2538.054688	21741.191406
2536.583984	21551.359375
2535.113281	21431.582031
2533.641602	21347.685547
2532.169922	21355.925781
2530.698242	21304.482422
2529.225586	21476.367188
2527.752930	21605.558594
2526.279297	21593.271484
2524.805664	21443.019531
2523.332031	21578.927734
2521.857422	21473.013672
2520.382813	21474.380859
2518.908203	21440.011719
2517.432617	21286.576172
2515.956055	21495.470703
2514.480469	21855.583984
2513.003906	21535.566406
2511.526367	21740.833984
2510.049805	21509.351563
2508.571289	21612.603516
2507.093750	21709.007813
2505.615234	21659.357422
2504.135742	21794.734375
2502.657227	21794.292969
2501.177734	21858.312500
2499.697266	21567.835938
2498.216797	21993.031250
2496.736328	21694.187500
2495.254883	21709.013672
2493.773438	21701.804688
2492.291992	21738.636719
2490.809570	21653.521484
2489.327148	21759.753906
2487.843750	21813.462891
2486.360352	21664.087891
2484.876953	21741.470703
2483.392578	21661.527344
2481.908203	21776.066406
2480.423828	21729.958984
2478.938477	21683.871094
2477.453125	21911.509766
2475.966797	21916.068359
2474.480469	21495.078125
2472.993164	21714.142578
2471.506836	21917.902344
2470.018555	21917.384766
2468.531250	21977.595703
2467.042969	21869.119141
2465.553711	21925.935547
2464.065430	21790.554688
2462.576172	22010.824219
2461.085938	22025.433594
2459.595703	22055.191406
2458.105469	22020.943359
2456.614258	22075.935547
2455.123047	22085.457031
2453.630859	22163.957031
2452.139648	22186.904297
2450.646484	22112.291016
2449.154297	22024.263672
2447.661133	22225.400391
2446.166992	22041.595703
2444.672852	22299.744141
2443.178711	22210.070313
2441.683594	22296.759766
2440.188477	21948.593750
2438.693359	22042.013672
2437.197266	21969.267578
2435.701172	22159.925781
2434.205078	22181.099609
2432.708008	22037.947266
2431.209961	22300.513672
2429.712891	22242.867188
2428.213867	22104.828125
2426.715820	22131.003906
2425.216797	22043.294922
2423.717773	22499.707031
2422.217773	22062.152344
2420.717773	22096.667969
2419.216797	22102.726563
2417.715820	22112.125000
2416.214844	22203.441406
2414.713867	22149.287109
2413.210938	22360.861328
2411.708984	22375.187500
2410.206055	22277.597656
2408.703125	22243.509766
2407.199219	22194.412109
2405.695313	22215.431641
2404.191406	22017.863281
2402.686523	22207.392578
2401.181641	22084.968750
2399.675781	22304.388672
2398.169922	22308.675781
2396.664063	22381.279297
2395.157227	22278.919922
2393.650391	22203.257813
2392.142578	22379.062500
2390.634766	22373.326172
2389.126953	22314.333984
2387.618164	22471.667969
2386.109375	22361.111328
2384.599609	22345.398438
2383.089844	22421.130859
2381.580078	22445.298828
2380.069336	22479.419922
2378.558594	22289.251953
2377.047852	22256.958984
2375.536133	22395.701172
2374.023438	22267.113281
2372.511719	22367.609375
2370.998047	22383.435547
2369.485352	22346.171875
2367.971680	22612.392578
2366.458008	22545.244141
2364.943359	22744.974609
2363.428711	22422.642578
2361.913086	22425.164063
2360.397461	22440.931641
2358.881836	22569.279297
2357.365234	22479.058594
2355.848633	22306.136719
2354.332031	22510.517578
2352.814453	22431.953125
2351.295898	22500.595703
2349.778320	22575.816406
2348.258789	22814.617188
2346.740234	22598.902344
2345.220703	22285.833984
2343.701172	22334.597656
2342.180664	22545.138672
2340.660156	22504.673828
2339.138672	22370.166016
2337.617188	22681.164063
2336.095703	22299.271484
2334.573242	22463.371094
2333.050781	22688.376953
2331.528320	22624.851563
2330.004883	22658.566406
2328.480469	22578.605469
2326.957031	22643.601563
2325.431641	22604.837891
2323.907227	22441.001953
2322.381836	22650.783203
2320.856445	22597.236328
2319.330078	22713.119141
2317.803711	22730.283203
2316.276367	22678.394531
2314.749023	22626.531250
2313.221680	22614.123047
2311.693359	22631.287109
2310.165039	22495.720703
2308.635742	22585.136719
2307.106445	22498.884766
2305.577148	22895.093750
2304.046875	22813.724609
2302.516602	22701.234375
2300.985352	22841.298828
2299.454102	22743.609375
2297.922852	22742.652344
2296.390625	22682.714844
2294.858398	22680.132813
2293.325195	22441.751953
2291.791992	22715.894531
2290.258789	22796.767578
2288.724609	22712.339844
2287.190430	22762.087891
2285.655273	22456.933594
2284.120117	22559.035156
2282.583984	22564.646484
2281.048828	22820.269531
2279.511719	22771.894531
2277.975586	22360.958984
2276.438477	22716.033203
2274.900391	22674.246094
2273.362305	22807.101563
2271.824219	22592.359375
2270.285156	22637.082031
2268.746094	22717.652344
2267.206055	22705.253906
2265.666016	22749.904297
2264.125977	22716.314453
2262.584961	22617.580078
2261.043945	22898.361328
2259.502930	23038.970703
2257.960938	22718.845703
2256.417969	22771.546875
2254.875000	22840.488281
2253.332031	22719.091797
2251.789063	22908.335938
2250.245117	22861.759766
2248.700195	22797.328125
2247.155273	22871.037109
2245.610352	22894.349609
2244.064453	22980.984375
2242.518555	22975.027344
2240.972656	23095.677734
2239.425781	22869.000000
2237.877930	22695.972656
2236.331055	22954.455078
2234.783203	22713.390625
2233.234375	22987.939453
2231.685547	22998.181641
2230.136719	22789.691406
2228.586914	23120.693359
2227.037109	23134.125000
2225.486328	22878.806641
2223.935547	23012.060547
2222.384766	23017.416016
2220.833008	23022.763672
2219.281250	22989.294922
2217.728516	23127.224609
2216.175781	23299.025391
2214.622070	23019.871094
2213.068359	23341.855469
2211.514648	23203.349609
2209.959961	23147.265625
2208.405273	23355.957031
2206.850586	22873.789063
2205.294922	23190.541016
2203.738281	23271.619141
2202.181641	23143.011719
2200.625000	23135.382813
2199.068359	22861.810547
2197.510742	23097.574219
2195.952148	23205.947266
2194.393555	23225.683594
2192.834961	23209.982422
2191.275391	23379.404297
2189.715820	23310.560547
2188.155273	23516.869141
2186.595703	23552.570313
2185.034180	23570.562500
2183.472656	23321.679688
2181.911133	23376.685547
2180.349609	23272.587891
2178.787109	23600.654297
2177.223633	23766.345703
2175.660156	23516.119141
2174.096680	23489.130859
2172.532227	23483.015625
2170.967773	23415.937500
2169.403320	23565.412109
2167.837891	23411.759766
2166.271484	23546.726563
2164.705078	23542.195313
2163.138672	23606.558594
2161.572266	23449.841797
2160.003906	23573.439453
2158.436523	23825.046875
2156.868164	23458.722656
2155.299805	23791.828125
2153.730469	23667.250000
2152.161133	23473.966797
2150.590820	23415.083984
2149.020508	23562.427734
2147.450195	23901.453125
2145.878906	23737.058594
2144.307617	23831.488281
2142.735352	23734.257813
2141.163086	23424.759766
