#Wave		#Intensity
3550.254883	19821.541016
3549.023438	19589.257813
3547.791016	19593.226563
3546.558594	19397.593750
3545.326172	19662.240234
3544.092773	19544.033203
3542.860352	19340.388672
3541.625977	19830.751953
3540.392578	19767.511719
3539.159180	19368.669922
3537.924805	19726.517578
3536.690430	19647.068359
3535.455078	19846.140625
3534.220703	19679.302734
3532.985352	19699.470703
3531.749023	19664.779297
3530.513672	19445.273438
3529.277344	19843.166016
3528.041016	19771.914063
3526.804688	19846.832031
3525.567383	19503.679688
3524.331055	19580.646484
3523.092773	19598.755859
3521.855469	19894.689453
3520.617188	19703.878906
3519.378906	19565.853516
3518.140625	19685.275391
3516.902344	19612.148438
3515.663086	19915.853516
3514.423828	19609.785156
3513.184570	19897.158203
3511.944336	20014.343750
3510.704102	19710.468750
3509.463867	19787.167969
3508.223633	19784.925781
3506.982422	19855.501953
3505.741211	19760.214844
3504.500000	19620.484375
3503.258789	19994.263672
3502.016602	19777.740234
3500.774414	20060.392578
3499.532227	19870.205078
3498.289063	19627.585938
3497.045898	19972.677734
3495.802734	19905.775391
3494.559570	20357.630859
3493.315430	19860.841797
3492.071289	20124.875000
3490.827148	20007.562500
3489.582031	20116.162109
3488.336914	19914.214844
3487.091797	20040.925781
3485.846680	19853.185547
3484.600586	20163.207031
3483.355469	19979.546875
3482.108398	20071.886719
3480.862305	19993.027344
3479.615234	20085.318359
3478.368164	20129.263672
3477.121094	20336.181641
3475.873047	20255.312500
3474.625977	20365.560547
3473.376953	20025.298828
3472.128906	20242.103516
3470.879883	20163.326172
3469.631836	19986.107422
3468.381836	20066.144531
3467.132813	19975.398438
3465.882813	20222.091797
3464.632813	20263.867188
3463.382813	20259.451172
3462.131836	20182.781250
3460.880859	20248.611328
3459.629883	20127.837891
3458.377930	20153.531250
3457.126953	20526.126953
3455.875000	20511.621094
3454.622070	20300.687500
3453.370117	20488.632813
3452.117188	20259.759766
3450.864258	20209.259766
3449.610352	20252.904297
3448.357422	20464.714844
3447.103516	20242.042969
3445.849609	20539.816406
3444.594727	20331.228516
3443.339844	20508.818359
3442.084961	20194.320313
3440.830078	20129.908203
3439.574219	20311.417969
3438.318359	20272.986328
3437.062500	20404.423828
3435.805664	20405.941406
3434.549805	20131.814453
3433.292969	20251.207031
3432.035156	20412.470703
3430.778320	20340.121094
3429.520508	20437.431641
3428.261719	20351.136719
3427.003906	20326.714844
3425.745117	20328.228516
3424.486328	20249.982422
3423.227539	20395.035156
3421.967773	20326.771484
3420.708008	20495.650391
3419.448242	20411.451172
3418.188477	20560.316406
3416.927734	20402.458984
3415.666992	20372.080078
3414.405273	20278.021484
3413.144531	20386.976563
3411.882813	20485.933594
3410.621094	20588.822266
3409.358398	20807.003906
3408.095703	20374.951172
3406.833008	20392.316406
3405.570313	20109.587891
3404.307617	20285.949219
3403.043945	20128.509766
3401.779297	20445.789063
3400.515625	20320.148438
3399.250977	20091.333984
3397.986328	20380.621094
3396.721680	20259.039063
3395.456055	20125.605469
3394.190430	20176.681641
3392.924805	20237.648438
3391.659180	20173.689453
3390.392578	20074.078125
3389.125977	20295.529297
3387.858398	20407.916016
3386.591797	20349.908203
3385.324219	20509.755859
3384.056641	20265.640625
3382.788086	20492.730469
3381.519531	20464.431641
3380.250977	20347.109375
3378.982422	20241.705078
3377.712891	20059.216797
3376.443359	19922.283203
3375.173828	20550.416016
3373.904297	20638.730469
3372.633789	20284.404297
3371.363281	20248.281250
3370.091797	20423.498047
3368.821289	20468.312500
3367.549805	20266.339844
3366.277344	20317.085938
3365.005859	20251.384766
3363.733398	20162.039063
3362.460938	20236.435547
3361.188477	20192.480469
3359.915039	20109.115234
3358.641602	20278.078125
3357.368164	20332.666016
3356.093750	20355.707031
3354.819336	20166.003906
3353.544922	20338.732422
3352.269531	20414.908203
3350.995117	20357.195313
3349.719727	20327.058594
3348.443359	20397.275391
3347.167969	20599.253906
3345.891602	20464.843750
3344.615234	20369.814453
3343.337891	20331.833984
3342.060547	20343.001953
3340.783203	20393.458984
3339.505859	20316.201172
3338.227539	20474.658203
3336.949219	20419.011719
3335.670898	20528.291016
3334.391602	20400.035156
3333.112305	20407.228516
3331.833008	20332.021484
3330.553711	20568.701172
3329.273438	20509.173828
3327.993164	20286.951172
3326.712891	20321.591797
3325.431641	20418.919922
3324.150391	20345.757813
3322.869141	20460.660156
3321.587891	20442.347656
3320.305664	20449.492188
3319.023438	20380.294922
3317.740234	20536.173828
3316.458008	20633.285156
3315.174805	20657.976563
3313.890625	20672.875000
3312.607422	20879.373047
3311.323242	20604.910156
3310.039063	20545.541016
3308.753906	20710.890625
3307.468750	20540.173828
3306.183594	20764.035156
3304.898438	20790.585938
3303.612305	20875.685547
3302.326172	20519.669922
3301.040039	20764.787109
3299.753906	20980.529297
3298.466797	20792.453125
3297.179688	20805.298828
3295.891602	20630.990234
3294.603516	20778.341797
3293.315430	20783.380859
3292.027344	20613.083984
3290.738281	20760.333984
3289.449219	20864.675781
3288.160156	20778.181641
3286.871094	20588.566406
3285.581055	21041.187500
3284.291016	20867.160156
3283.000000	20858.535156
3281.708984	20851.857422
3280.417969	21121.248047
3279.126953	20937.630859
3277.834961	20901.783203
3276.543945	20955.320313
3275.250977	20876.748047
3273.958984	21277.869141
3272.666016	21059.464844
3271.373047	21167.257813
3270.079102	21047.947266
3268.786133	20903.464844
3267.492188	21224.582031
3266.197266	21035.517578
3264.903320	21290.533203
3263.608398	21126.734375
3262.312500	21338.972656
3261.017578	21105.482422
3259.721680	21259.511719
3258.425781	21264.347656
3257.128906	21153.005859
3255.833008	21124.951172
3254.535156	21085.294922
3253.238281	21244.947266
3251.940430	21081.472656
3250.642578	21283.595703
3249.344727	21029.306641
3248.046875	21328.000000
3246.748047	21348.250000
3245.448242	21503.744141
3244.149414	21089.289063
3242.849609	21229.316406
3241.549805	21160.740234
3240.250000	21215.740234
3238.949219	21409.675781
3237.648438	21350.746094
3236.347656	21110.501953
3235.045898	21290.820313
3233.744141	21312.937500
3232.442383	21317.693359
3231.139648	21268.476563
3229.836914	21248.183594
3228.534180	21339.634766
3227.231445	21402.150391
3225.927734	21614.830078
3224.624023	21415.427734
3223.319336	21321.974609
3222.015625	21238.181641
3220.710938	21246.771484
3219.405273	21449.615234
3218.100586	21483.144531
3216.794922	21276.341797
3215.489258	21492.486328
3214.182617	21493.308594
3212.875977	21526.787109
3211.569336	21445.003906
3210.262695	21186.587891
3208.955078	21275.783203
3207.647461	21443.630859
3206.338867	21436.771484
3205.031250	21468.285156
3203.722656	21524.714844
3202.413086	21397.025391
3201.104492	21142.855469
3199.794922	21551.998047
3198.485352	21460.791016
3197.174805	21300.654297
3195.864258	21203.796875
3194.553711	21363.589844
3193.243164	21314.623047
3191.931641	21470.484375
3190.620117	21465.523438
3189.307617	21202.277344
3187.996094	21354.224609
3186.682617	21421.955078
3185.370117	21390.234375
3184.056641	21092.835938
3182.744141	21269.500000
3181.429688	21339.089844
3180.116211	21401.003906
3178.801758	21447.609375
3177.487305	21221.171875
3176.171875	21609.466797
3174.856445	21434.615234
3173.541016	21586.095703
3172.225586	21275.896484
3170.909180	21539.853516
3169.592773	21492.912109
3168.275391	21524.142578
3166.958984	21275.218750
3165.641602	21342.679688
3164.323242	21269.152344
3163.005859	21528.919922
3161.687500	21619.115234
3160.368164	21418.033203
3159.049805	21521.529297
3157.730469	21459.447266
3156.411133	21336.525391
3155.090820	21046.304688
3153.770508	21398.849609
3152.450195	21131.554688
3151.129883	21291.970703
3149.808594	21359.212891
3148.487305	21622.068359
3147.165039	21394.841797
3145.842773	21331.001953
3144.520508	21525.339844
3143.198242	21283.105469
3141.875000	21594.992188
3140.551758	21726.529297
3139.228516	21626.642578
3137.904297	21189.316406
3136.580078	21409.939453
3135.255859	21503.486328
3133.931641	21225.638672
3132.606445	21394.947266
3131.280273	21172.169922
3129.955078	21206.982422
3128.628906	21487.849609
3127.302734	21384.421875
3125.975586	21282.931641
3124.649414	21590.058594
3123.321289	21454.523438
3121.994141	21587.521484
3120.666016	21425.582031
3119.337891	21698.363281
3118.009766	21321.085938
3116.680664	21557.869141
3115.351563	21503.720703
3114.022461	21591.195313
3112.692383	21397.378906
3111.362305	21533.898438
3110.032227	21592.996094
3108.701172	21495.507813
3107.370117	21762.019531
3106.039063	21796.505859
3104.707031	21508.656250
3103.375000	21692.052734
3102.042969	21639.861328
3100.710938	21485.976563
3099.377930	21633.462891
3098.044922	21645.326172
3096.710938	21655.296875
3095.376953	21514.716797
3094.042969	21599.964844
3092.708984	21702.097656
3091.374023	21508.945313
3090.039063	21633.607422
3088.703125	21788.283203
3087.367188	21929.728516
3086.031250	22027.894531
3084.695313	22026.464844
3083.358398	21961.187500
3082.021484	21865.898438
3080.684570	21956.470703
3079.346680	22060.132813
3078.008789	22053.056641
3076.670898	21884.677734
3075.332031	22145.791016
3073.993164	22106.822266
3072.654297	21871.068359
3071.314453	22034.552734
3069.974609	22239.171875
3068.634766	22127.162109
3067.293945	21908.468750
3065.953125	21963.201172
3064.612305	22068.437500
3063.270508	22257.826172
3061.929688	22194.572266
3060.586914	22196.804688
3059.245117	21916.685547
3057.902344	22076.011719
3056.559570	22053.966797
3055.215820	22297.263672
3053.872070	22206.054688
3052.528320	22002.826172
3051.184570	22079.773438
3049.839844	22251.886719
3048.495117	22227.951172
3047.149414	22463.382813
3045.803711	22174.511719
3044.458008	22159.929688
3043.112305	22216.207031
3041.765625	22332.105469
3040.418945	22352.898438
3039.071289	22381.132813
3037.723633	22366.507813
3036.375977	22536.259766
3035.028320	22389.404297
3033.679688	22410.146484
3032.331055	22060.535156
3030.982422	22427.410156
3029.632813	22528.107422
3028.283203	22208.464844
3026.932617	22257.103516
3025.583008	21999.013672
3024.232422	22292.978516
3022.880859	22257.947266
3021.530273	21912.732422
3020.177734	22057.937500
3018.826172	22279.191406
3017.473633	22440.941406
3016.121094	22385.492188
3014.768555	22465.501953
3013.415039	22295.070313
3012.061523	22382.476563
3010.708008	22579.222656
3009.353516	22657.246094
3007.999023	22583.281250
3006.644531	22335.201172
3005.289063	22400.255859
3003.933594	22213.439453
3002.578125	22384.011719
3001.221680	22519.333984
2999.865234	22386.277344
2998.508789	22336.533203
2997.151367	22040.822266
2995.793945	22536.658203
2994.436523	22449.931641
2993.078125	22394.664063
2991.719727	22315.400391
2990.361328	22262.033203
2989.001953	22265.943359
2987.642578	22546.814453
2986.283203	22450.966797
2984.922852	22464.048828
2983.562500	22447.601563
2982.202148	22525.236328
2980.840820	22523.531250
2979.479492	22628.763672
2978.118164	22380.021484
2976.755859	22726.652344
2975.393555	22610.658203
2974.031250	22842.857422
2972.667969	22607.183594
2971.304688	22570.462891
2969.941406	22675.490234
2968.577148	22585.398438
2967.212891	22752.919922
2965.848633	22881.732422
2964.483398	22791.648438
2963.118164	22633.582031
2961.752930	22574.843750
2960.386719	22753.179688
2959.020508	22876.314453
2957.653320	22797.347656
2956.287109	23012.220703
2954.919922	22674.402344
2953.551758	23045.207031
2952.184570	23034.158203
2950.816406	23500.085938
2949.447266	22986.394531
2948.078125	23206.398438
2946.708984	23376.798828
2945.339844	23127.416016
2943.969727	23264.765625
2942.599609	23169.400391
2941.229492	23046.607422
2939.858398	23105.138672
2938.487305	23491.306641
2937.115234	23452.701172
2935.744141	23617.205078
2934.372070	23439.562500
2932.999023	23560.095703
2931.625977	23508.703125
2930.252930	23530.449219
2928.879883	23789.750000
2927.505859	23637.845703
2926.131836	23478.707031
2924.756836	23617.300781
2923.382813	23735.744141
2922.006836	23609.542969
2920.631836	23693.253906
2919.255859	23495.968750
2917.879883	23554.126953
2916.502930	23614.076172
2915.125977	23560.966797
2913.749023	23425.863281
2912.372070	23586.011719
2910.994141	23445.498047
2909.616211	23523.603516
2908.237305	23940.341797
2906.858398	23701.535156
2905.479492	23490.140625
2904.099609	23611.816406
2902.719727	23533.333984
2901.339844	23593.101563
2899.958984	23754.658203
2898.578125	23687.095703
2897.197266	23657.728516
2895.815430	23928.154297
2894.433594	23900.554688
2893.051758	24105.410156
2891.668945	23763.685547
2890.286133	24017.478516
2888.903320	24076.976563
2887.519531	24134.628906
2886.135742	24074.353516
2884.751953	24001.414063
2883.367188	23836.046875
2881.982422	23823.005859
2880.597656	23828.087891
2879.211914	23976.281250
2877.826172	24089.988281
2876.439453	23935.652344
2875.052734	23956.984375
2873.666016	23770.175781
2872.279297	24397.673828
2870.891602	24154.767578
2869.503906	23897.505859
2868.115234	23719.923828
2866.726563	23929.253906
2865.337891	23670.421875
2863.948242	23913.986328
2862.558594	23918.998047
2861.168945	23831.906250
2859.779297	24060.800781
2858.388672	23753.503906
2856.997070	24022.003906
2855.606445	23962.021484
2854.214844	23956.177734
2852.822266	24141.474609
2851.430664	24162.625000
2850.037109	23976.496094
2848.644531	23876.945313
2847.250977	23736.005859
2845.857422	23773.433594
2844.463867	23738.818359
2843.069336	23979.638672
2841.674805	23966.582031
2840.279297	23741.214844
2838.883789	23721.023438
2837.488281	23686.449219
2836.092773	23594.357422
2834.696289	23660.488281
2833.299805	23690.640625
2831.902344	23325.521484
2830.504883	23756.287109
2829.107422	23556.533203
2827.708984	23741.068359
2826.310547	23492.949219
2824.912109	23555.384766
2823.512695	23528.087891
2822.113281	23360.906250
2820.713867	23556.011719
2819.313477	23557.410156
2817.913086	23531.921875
2816.511719	23549.445313
2815.110352	23439.773438
2813.708984	23622.070313
2812.307617	23471.250000
2810.905273	23349.140625
2809.502930	23350.570313
2808.099609	23530.910156
2806.696289	23646.767578
2805.292969	23667.787109
2803.888672	23851.486328
2802.484375	23654.376953
2801.080078	23403.753906
2799.674805	23396.218750
2798.269531	23678.027344
2796.864258	23550.785156
2795.458008	23564.632813
2794.051758	23687.343750
2792.645508	23767.166016
2791.238281	23736.345703
2789.831055	23905.285156
2788.422852	23681.876953
2787.014648	23761.613281
2785.606445	23869.822266
2784.197266	23999.353516
2782.788086	23573.070313
2781.378906	23784.525391
2779.968750	23807.152344
2778.558594	23810.187500
2777.148438	23777.628906
2775.737305	23711.283203
2774.326172	23648.523438
2772.915039	23816.955078
2771.502930	23747.083984
2770.090820	23712.791016
2768.677734	24080.085938
2767.265625	24061.710938
2765.851563	24087.742188
2764.438477	24284.210938
2763.024414	23964.021484
2761.610352	24046.839844
2760.195313	23975.255859
2758.780273	24102.371094
2757.365234	24296.808594
2755.949219	24108.195313
2754.533203	24063.244141
2753.116211	24207.921875
2751.700195	24276.345703
2750.282227	24142.820313
2748.865234	24175.808594
2747.447266	24299.060547
2746.029297	24202.789063
2744.610352	24288.812500
2743.191406	24381.865234
2741.772461	24623.427734
2740.352539	24622.638672
2738.932617	24273.615234
2737.512695	24391.312500
2736.091797	24508.949219
2734.670898	24561.167969
2733.249023	24385.556641
2731.828125	24506.628906
2730.405273	24541.152344
2728.983398	24289.791016
2727.560547	24518.404297
2726.137695	24489.396484
2724.713867	24601.464844
2723.290039	24535.427734
2721.866211	24576.927734
2720.441406	24535.589844
2719.016602	24599.964844
2717.590820	24435.359375
2716.166016	24601.839844
2714.739258	24717.189453
2713.313477	24612.503906
2711.886719	24382.953125
2710.459961	24424.386719
2709.032227	24576.583984
2707.604492	24624.976563
2706.176758	24406.187500
2704.748047	24665.455078
2703.319336	24884.185547
2701.890625	24846.384766
2700.460938	24933.267578
2699.031250	24723.437500
2697.600586	24799.771484
2696.169922	24751.492188
2694.739258	24555.888672
2693.307617	24607.650391
2691.875977	24729.511719
2690.444336	24583.130859
2689.011719	24771.521484
2687.579102	24987.849609
2686.146484	24869.529297
2684.712891	24746.013672
2683.279297	24776.611328
2681.844727	24821.191406
2680.410156	25276.941406
2678.975586	24738.847656
2677.540039	24916.312500
2676.104492	24988.779297
2674.668945	25155.599609
2673.232422	25105.634766
2671.795898	25087.142578
2670.359375	25098.349609
2668.921875	25191.623047
2667.484375	25117.248047
2666.045898	25065.597656
2664.607422	24776.656250
2663.168945	24918.753906
2661.729492	25043.335938
2660.290039	25005.695313
2658.850586	25119.728516
2657.410156	25026.312500
2655.969727	24978.242188
2654.528320	25120.060547
2653.086914	25296.636719
2651.645508	25199.777344
2650.203125	25017.673828
2648.760742	25044.480469
2647.318359	25052.132813
2645.875000	25245.884766
2644.431641	25213.484375
2642.987305	24972.486328
2641.543945	25115.703125
2640.098633	25437.812500
2638.654297	25426.232422
2637.208984	25501.488281
2635.762695	25269.388672
2634.317383	25410.603516
2632.871094	25430.267578
2631.423828	25482.882813
2629.976563	25408.849609
2628.529297	25504.791016
2627.082031	25550.406250
2625.633789	25625.460938
2624.184570	25759.388672
2622.736328	25525.992188
2621.287109	25628.697266
2619.836914	25435.269531
2618.386719	25447.927734
2616.936523	25531.531250
2615.486328	25853.855469
2614.035156	25939.039063
2612.583008	25508.849609
2611.131836	25542.207031
2609.679688	25981.726563
2608.226563	25785.119141
2606.774414	25643.892578
2605.320313	25792.888672
2603.867188	25884.828125
2602.413086	25914.574219
2600.958984	25754.460938
2599.503906	25929.150391
2598.048828	25789.808594
2596.593750	25962.671875
2595.137695	25942.349609
2593.681641	26006.492188
2592.224609	25881.046875
2590.767578	25726.373047
2589.310547	25952.416016
2587.852539	25808.128906
2586.394531	26054.689453
2584.936523	25802.017578
2583.477539	25976.185547
2582.018555	25866.429688
2580.558594	26011.251953
2579.098633	25968.593750
2577.638672	25785.003906
2576.177734	26182.341797
2574.716797	26235.871094
2573.255859	26193.187500
2571.793945	26133.351563
2570.332031	25949.939453
2568.869141	26266.056641
2567.407227	26060.390625
2565.943359	25822.234375
2564.479492	26064.392578
2563.015625	26095.535156
2561.551758	26128.373047
2560.086914	26159.478516
2558.622070	26144.306641
2557.156250	26401.480469
2555.690430	26209.873047
2554.224609	26317.955078
2552.757813	26224.017578
2551.291016	26239.636719
2549.824219	26191.949219
2548.356445	26185.330078
2546.888672	26216.326172
2545.419922	26657.552734
2543.951172	26414.980469
2542.482422	26003.384766
2541.012695	26119.789063
2539.542969	26302.730469
2538.072266	26261.931641
2536.601563	26260.406250
2535.130859	26325.427734
2533.659180	26421.119141
2532.187500	26569.628906
2530.715820	26310.556641
2529.243164	26259.574219
2527.770508	26097.843750
2526.296875	26266.720703
2524.823242	26060.777344
2523.349609	26420.296875
2521.875000	26287.619141
2520.400391	26333.720703
2518.925781	26468.279297
2517.450195	26344.189453
2515.974609	26682.757813
2514.498047	26514.464844
2513.021484	26608.033203
2511.543945	26628.474609
2510.067383	26550.361328
2508.588867	26535.132813
2507.111328	26626.892578
2505.632813	26564.111328
2504.154297	26708.425781
2502.674805	26842.486328
2501.195313	26464.154297
2499.714844	26683.001953
2498.234375	26764.394531
2496.753906	26654.193359
2495.273438	26757.578125
2493.791992	26713.507813
2492.309570	26976.039063
2490.827148	26791.376953
2489.344727	26550.937500
2487.862305	27092.572266
2486.378906	27100.914063
2484.894531	27114.324219
2483.411133	26870.652344
2481.926758	26951.742188
2480.441406	26838.390625
2478.956055	26916.062500
2477.470703	26779.119141
2475.984375	26988.509766
2474.498047	26976.576172
2473.011719	27136.845703
2471.524414	26989.849609
2470.037109	27198.962891
2468.548828	27077.324219
2467.060547	27082.234375
2465.572266	27213.595703
2464.083008	27454.457031
2462.593750	27346.347656
2461.103516	27278.726563
2459.613281	27308.830078
2458.123047	27379.332031
2456.631836	27246.089844
2455.140625	27436.064453
2453.649414	27213.689453
2452.157227	27319.458984
2450.665039	27537.851563
2449.171875	27398.000000
2447.678711	27355.710938
2446.184570	27659.626953
2444.691406	27324.951172
2443.196289	27479.224609
2441.702148	27564.568359
2440.207031	27381.257813
2438.710938	27399.443359
2437.215820	27467.955078
2435.719727	27534.750000
2434.222656	27423.738281
2432.725586	27629.669922
2431.228516	27399.671875
2429.730469	27756.320313
2428.232422	27596.769531
2426.733398	27581.341797
2425.234375	27482.193359
2423.735352	27431.640625
2422.235352	27811.244141
2420.735352	27902.853516
2419.235352	27594.613281
2417.734375	27637.726563
2416.233398	27587.185547
2414.731445	27673.732422
2413.229492	27711.771484
2411.726563	27764.824219
2410.224609	27847.912109
2408.720703	27677.142578
2407.217773	27623.314453
2405.713867	27626.255859
2404.208984	27667.570313
2402.704102	27858.988281
2401.199219	27925.230469
2399.694336	27876.396484
2398.188477	27920.927734
2396.681641	27833.787109
2395.174805	27588.419922
2393.667969	27608.000000
2392.161133	27815.722656
2390.653320	27670.423828
2389.144531	28049.437500
2387.636719	27989.003906
2386.126953	27893.666016
2384.618164	27836.621094
2383.108398	27957.498047
2381.598633	28048.392578
2380.087891	28117.634766
2378.577148	27874.517578
2377.065430	28073.310547
2375.553711	28027.916016
2374.041992	28034.001953
2372.529297	27814.378906
2371.016602	27930.015625
2369.502930	28043.929688
2367.989258	27909.039063
2366.475586	28253.337891
2364.960938	28216.246094
2363.446289	27950.503906
2361.931641	27862.150391
2360.416016	27984.169922
2358.899414	27981.945313
2357.383789	28024.414063
2355.867188	28159.529297
2354.349609	28498.072266
2352.832031	28156.630859
2351.314453	28395.777344
2349.795898	28219.849609
2348.277344	28397.701172
2346.758789	28367.263672
2345.239258	28313.710938
2343.718750	28207.337891
2342.199219	28355.277344
2340.677734	27969.986328
2339.157227	28381.939453
2337.635742	28193.156250
2336.114258	28491.031250
2334.591797	28422.683594
2333.069336	28478.007813
2331.545898	28159.185547
2330.022461	28268.916016
2328.499023	28400.001953
2326.974609	28410.800781
2325.450195	28306.343750
2323.925781	28205.230469
2322.400391	28354.287109
2320.874023	28261.433594
2319.348633	28165.333984
2317.821289	28370.183594
2316.294922	28499.308594
2314.767578	28447.585938
2313.240234	28456.679688
2311.711914	28465.765625
2310.183594	28254.796875
2308.654297	28318.101563
2307.125000	28453.587891
2305.595703	28677.609375
2304.065430	28458.589844
2302.535156	28498.806641
2301.003906	28598.025391
2299.472656	28367.712891
2297.941406	28507.876953
2296.409180	28548.027344
2294.876953	28591.431641
2293.343750	28516.910156
2291.810547	28537.373047
2290.277344	28546.367188
2288.743164	28450.636719
2287.208008	28637.945313
2285.673828	28507.892578
2284.138672	28317.410156
2282.602539	28476.812500
2281.066406	28675.349609
2279.530273	28867.246094
2277.993164	29037.806641
2276.456055	28609.025391
2274.918945	28554.287109
2273.380859	28579.541016
2271.842773	28521.570313
2270.303711	28662.626953
2268.764648	28689.455078
2267.224609	28848.324219
2265.684570	28720.246094
2264.144531	28786.140625
2262.603516	28669.542969
2261.062500	28435.742188
2259.520508	28778.445313
2257.979492	28912.609375
2256.436523	28996.255859
2254.893555	28923.667969
2253.350586	29059.310547
2251.806641	28759.085938
2250.262695	28953.218750
2248.718750	28872.582031
2247.173828	28886.222656
2245.628906	28912.849609
2244.083008	29194.425781
2242.537109	29222.578125
2240.991211	28961.792969
2239.444336	29137.652344
2237.896484	29047.359375
2236.349609	29258.781250
2234.801758	28900.958984
2233.252930	28984.240234
2231.704102	29284.640625
2230.155273	29053.457031
2228.605469	29311.562500
2227.055664	29247.279297
2225.504883	28941.804688
2223.954102	29382.625000
2222.403320	29384.707031
2220.851563	29393.255859
2219.299805	29416.353516
2217.747070	29390.931641
2216.194336	29412.396484
2214.640625	29642.310547
2213.086914	29527.984375
2211.533203	29567.154297
2209.978516	29519.105469
2208.423828	29416.191406
2206.869141	29510.224609
2205.313477	29650.998047
2203.756836	29627.162109
2202.200195	29434.007813
2200.643555	29702.048828
2199.086914	29639.525391
2197.529297	29530.302734
2195.970703	29699.832031
2194.412109	29788.742188
2192.853516	29779.386719
2191.293945	29911.687500
2189.734375	29857.238281
2188.174805	29949.220703
2186.614258	29851.357422
2185.052734	30052.634766
2183.491211	30052.853516
2181.929688	29852.169922
2180.368164	30014.718750
2178.805664	29880.003906
2177.242188	30061.728516
2175.678711	30060.324219
2174.115234	30177.697266
2172.550781	30116.884766
2170.986328	29913.320313
2169.421875	30101.201172
2167.856445	30288.980469
2166.290039	30410.935547
2164.724609	30085.699219
2163.157227	30137.140625
2161.590820	30311.890625
2160.023438	29940.484375
2158.455078	30291.292969
2156.886719	30011.308594
2155.318359	30289.904297
2153.749023	30014.861328
2152.179688	30418.048828
2150.610352	30066.365234
2149.040039	30168.816406
2147.468750	30544.474609
2145.897461	30424.675781
2144.326172	30274.591797
2142.754883	30732.949219
2141.181641	30389.699219
