#Wave		#Intensity
3550.429688	19041.740234
3549.198242	19137.509766
3547.965820	18972.488281
3546.733398	18862.525391
3545.500977	19068.242188
3544.268555	19212.789063
3543.035156	19210.720703
3541.801758	19296.156250
3540.568359	19320.515625
3539.333984	19212.642578
3538.099609	19198.363281
3536.865234	19489.082031
3535.630859	19314.150391
3534.395508	19263.269531
3533.160156	19470.470703
3531.924805	19569.908203
3530.689453	19248.859375
3529.453125	18960.437500
3528.216797	19047.732422
3526.980469	19206.031250
3525.743164	19274.966797
3524.505859	19055.761719
3523.268555	19224.093750
3522.031250	19420.742188
3520.792969	19150.949219
3519.555664	19607.005859
3518.316406	19426.462891
3517.078125	19584.390625
3515.838867	19462.675781
3514.599609	19586.091797
3513.360352	19409.748047
3512.121094	19660.666016
3510.880859	19470.210938
3509.640625	19459.943359
3508.399414	19621.658203
3507.159180	19807.574219
3505.917969	19647.576172
3504.676758	19740.392578
3503.434570	19780.605469
3502.192383	19788.462891
3500.951172	19802.375000
3499.708008	19785.976563
3498.465820	19640.316406
3497.222656	19815.792969
3495.979492	20118.382813
3494.735352	19797.130859
3493.492188	20119.769531
3492.248047	19949.972656
3491.003906	19727.800781
3489.758789	19915.117188
3488.514648	19945.080078
3487.268555	19860.125000
3486.023438	20027.130859
3484.778320	20190.031250
3483.532227	20058.736328
3482.286133	19766.369141
3481.039063	19800.339844
3479.792969	20057.759766
3478.545898	19982.957031
3477.297852	20350.902344
3476.050781	20179.492188
3474.802734	20036.314453
3473.554688	19905.261719
3472.306641	20122.099609
3471.057617	20115.712891
3469.808594	20061.091797
3468.559570	20245.599609
3467.310547	19883.615234
3466.060547	20214.689453
3464.810547	20190.205078
3463.559570	20037.248047
3462.309570	20032.878906
3461.058594	20191.050781
3459.807617	20204.703125
3458.556641	20350.728516
3457.304688	20121.687500
3456.052734	20327.810547
3454.800781	20289.294922
3453.547852	20371.035156
3452.294922	20330.519531
3451.041992	20314.056641
3449.789063	20425.773438
3448.535156	20221.076172
3447.281250	20402.824219
3446.027344	20324.306641
3444.772461	20179.789063
3443.518555	20633.492188
3442.263672	20438.964844
3441.007813	20424.488281
3439.752930	20519.972656
3438.497070	20583.431641
3437.241211	20614.888672
3435.984375	20430.554688
3434.727539	20290.244141
3433.470703	20237.861328
3432.213867	20385.158203
3430.956055	20514.423828
3429.699219	20378.199219
3428.440430	20625.125000
3427.182617	20445.046875
3425.923828	20554.230469
3424.665039	20537.746094
3423.406250	20471.427734
3422.146484	20612.417969
3420.886719	20512.234375
3419.626953	20760.726563
3418.367188	20586.853516
3417.106445	20648.031250
3415.845703	20778.859375
3414.584961	20832.001953
3413.323242	20684.126953
3412.061523	20631.814453
3410.799805	20828.164063
3409.538086	20646.572266
3408.275391	20526.695313
3407.012695	20651.371094
3405.750000	20698.480469
3404.486328	20592.572266
3403.222656	20635.695313
3401.958984	20603.328125
3400.695313	20604.728516
3399.430664	20578.333984
3398.166016	20393.167969
3396.901367	20827.183594
3395.635742	20651.960938
3394.370117	20752.507813
3393.104492	20450.462891
3391.838867	20511.353516
3390.572266	20651.500000
3389.305664	20658.810547
3388.039063	20757.251953
3386.771484	20540.703125
3385.503906	20449.009766
3384.236328	20472.187500
3382.968750	20853.636719
3381.700195	20567.984375
3380.431641	20612.878906
3379.163086	21035.576172
3377.893555	20752.042969
3376.624023	20727.656250
3375.354492	20790.255859
3374.083984	20811.324219
3372.814453	20668.375000
3371.543945	20547.218750
3370.272461	20858.654297
3369.001953	20682.214844
3367.730469	20768.419922
3366.458008	20775.632813
3365.186523	20694.042969
3363.914063	21054.406250
3362.641602	20864.302734
3361.369141	20895.142578
3360.095703	20851.048828
3358.822266	20976.486328
3357.548828	20833.855469
3356.274414	20772.064453
3355.000000	20682.722656
3353.725586	20632.804688
3352.451172	21081.039063
3351.175781	20938.533203
3349.900391	20935.816406
3348.625000	21086.570313
3347.348633	20818.253906
3346.072266	21088.931641
3344.795898	20808.931641
3343.519531	21042.134766
3342.242188	21094.416016
3340.964844	20897.125000
3339.687500	21088.888672
3338.409180	21101.835938
3337.130859	20902.705078
3335.852539	21009.916016
3334.573242	21083.710938
3333.294922	20945.541016
3332.014648	21189.992188
3330.735352	21291.148438
3329.455078	21119.681641
3328.174805	21138.462891
3326.894531	21255.236328
3325.613281	21356.277344
3324.333008	21120.287109
3323.050781	21186.050781
3321.769531	21181.283203
3320.487305	21252.871094
3319.205078	21316.597656
3317.922852	21399.861328
3316.639648	21293.298828
3315.356445	21282.630859
3314.073242	21434.287109
3312.789063	21398.171875
3311.505859	21608.373047
3310.220703	21503.826172
3308.936523	21512.650391
3307.651367	21572.259766
3306.366211	21471.689453
3305.081055	21437.550781
3303.794922	21518.603516
3302.508789	21500.078125
3301.222656	21438.630859
3299.936523	21500.113281
3298.649414	21497.201172
3297.362305	21564.486328
3296.074219	21690.224609
3294.787109	21737.939453
3293.499023	21688.199219
3292.209961	21628.738281
3290.921875	21588.781250
3289.632813	21603.361328
3288.343750	21845.716797
3287.053711	21675.318359
3285.763672	21820.244141
3284.473633	21791.949219
3283.183594	21779.224609
3281.892578	21671.214844
3280.601563	21711.011719
3279.310547	22052.074219
3278.018555	22192.814453
3276.726563	22286.861328
3275.434570	22019.566406
3274.142578	22234.007813
3272.849609	21949.367188
3271.556641	21950.199219
3270.262695	22129.570313
3268.969727	22056.626953
3267.675781	22119.500000
3266.380859	21988.406250
3265.086914	21975.642578
3263.791992	21788.421875
3262.497070	22041.214844
3261.201172	22102.070313
3259.905273	22112.529297
3258.609375	22291.474609
3257.313477	22313.498047
3256.016602	22070.300781
3254.719727	22071.072266
3253.422852	21980.896484
3252.125000	22326.021484
3250.827148	22355.736328
3249.529297	22288.753906
3248.230469	22432.515625
3246.931641	22417.724609
3245.632813	22287.001953
3244.333984	22363.042969
3243.034180	22240.113281
3241.734375	22235.025391
3240.434570	22411.406250
3239.133789	22481.548828
3237.833008	22499.556641
3236.532227	22303.414063
3235.230469	22579.902344
3233.928711	22559.302734
3232.626953	22471.234375
3231.325195	22676.171875
3230.022461	22497.542969
3228.719727	22609.902344
3227.416016	22394.769531
3226.112305	22636.115234
3224.808594	22607.816406
3223.504883	22525.634766
3222.200195	22739.835938
3220.895508	22719.220703
3219.590820	22656.296875
3218.286133	22653.013672
3216.980469	23103.453125
3215.673828	22709.871094
3214.368164	22671.980469
3213.061523	22753.220703
3211.754883	22661.548828
3210.448242	22698.580078
3209.140625	22664.554688
3207.833008	22569.121094
3206.525391	22844.099609
3205.216797	22957.789063
3203.908203	22726.156250
3202.599609	22774.613281
3201.290039	22704.175781
3199.980469	22721.939453
3198.670898	22854.677734
3197.360352	22790.009766
3196.050781	22853.707031
3194.740234	22955.673828
3193.428711	22925.482422
3192.117188	22897.216797
3190.805664	22928.287109
3189.494141	22972.734375
3188.181641	22904.300781
3186.869141	22916.216797
3185.556641	22629.859375
3184.243164	22777.546875
3182.929688	22812.408203
3181.616211	23024.939453
3180.302734	22845.783203
3178.988281	23102.126953
3177.673828	22909.666016
3176.358398	22967.349609
3175.042969	23108.976563
3173.727539	23233.361328
3172.412109	22869.361328
3171.095703	22829.730469
3169.779297	22700.501953
3168.462891	22950.666016
3167.145508	23025.382813
3165.828125	22766.630859
3164.510742	22730.867188
3163.192383	23108.378906
3161.874023	23074.451172
3160.555664	22865.412109
3159.236328	22808.712891
3157.917969	23046.953125
3156.597656	22946.482422
3155.278320	23049.546875
3153.958008	23059.396484
3152.637695	23263.128906
3151.316406	23001.154297
3149.996094	23212.400391
3148.674805	23058.830078
3147.352539	23144.617188
3146.031250	23234.160156
3144.708984	23133.833984
3143.385742	23098.078125
3142.063477	22916.238281
3140.740234	23368.050781
3139.416016	23415.701172
3138.092773	23398.863281
3136.768555	23232.279297
3135.444336	23137.785156
3134.119141	23105.857422
3132.793945	23240.636719
3131.468750	23470.041016
3130.143555	23248.714844
3128.817383	23330.355469
3127.491211	23347.613281
3126.164063	23154.841797
3124.836914	23272.380859
3123.509766	23480.638672
3122.182617	23490.271484
3120.854492	23174.769531
3119.526367	23624.794922
3118.198242	23439.771484
3116.869141	23564.621094
3115.540039	23462.787109
3114.210938	23472.394531
3112.880859	23604.691406
3111.550781	23472.718750
3110.220703	23574.757813
3108.889648	23808.789063
3107.559570	23667.423828
3106.227539	23684.496094
3104.896484	23682.708984
3103.564453	23660.189453
3102.232422	23441.734375
3100.899414	23758.330078
3099.566406	23769.699219
3098.233398	23671.859375
3096.900391	23673.826172
3095.566406	23542.177734
3094.232422	23645.765625
3092.897461	23912.947266
3091.563477	23711.748047
3090.228516	23843.416016
3088.892578	23963.742188
3087.556641	23835.953125
3086.220703	23867.917969
3084.884766	23997.537109
3083.547852	24014.419922
3082.210938	24048.189453
3080.874023	24233.976563
3079.536133	24348.365234
3078.198242	23989.916016
3076.860352	24149.318359
3075.521484	24394.904297
3074.182617	24257.914063
3072.843750	23957.917969
3071.504883	24280.197266
3070.165039	24133.955078
3068.824219	24107.654297
3067.484375	24358.503906
3066.143555	24405.169922
3064.802734	24122.392578
3063.460938	24330.015625
3062.119141	24273.751953
3060.777344	24443.828125
3059.435547	24338.941406
3058.092773	24454.701172
3056.750000	24245.189453
3055.406250	24370.253906
3054.062500	24611.082031
3052.718750	24749.070313
3051.375000	24549.013672
3050.030273	24474.126953
3048.685547	24300.353516
3047.339844	24662.187500
3045.995117	24566.796875
3044.649414	24532.998047
3043.302734	24538.369141
3041.956055	24907.248047
3040.609375	24733.603516
3039.262695	24804.130859
3037.915039	24811.283203
3036.567383	24758.833984
3035.219727	24542.552734
3033.871094	24735.908203
3032.522461	24858.447266
3031.173828	24722.296875
3029.824219	24692.240234
3028.474609	24853.748047
3027.124023	24862.714844
3025.774414	24572.394531
3024.423828	24659.472656
3023.072266	24811.535156
3021.721680	24980.240234
3020.370117	25009.580078
3019.017578	24530.177734
3017.666016	24901.150391
3016.313477	25039.970703
3014.959961	25089.666016
3013.607422	25041.025391
3012.253906	24977.570313
3010.899414	24843.689453
3009.545898	25052.781250
3008.191406	25094.988281
3006.835938	24848.154297
3005.481445	25112.654297
3004.125977	24989.998047
3002.770508	24941.453125
3001.414063	25224.242188
3000.057617	25097.937500
2998.701172	24919.892578
2997.343750	25174.730469
2995.986328	25028.181641
2994.628906	25319.841797
2993.270508	25213.984375
2991.912109	25036.109375
2990.553711	24926.669922
2989.194336	25133.105469
2987.834961	25082.777344
2986.475586	24927.246094
2985.115234	25253.490234
2983.754883	24979.896484
2982.394531	25088.289063
2981.034180	25041.705078
2979.672852	25249.593750
2978.310547	25234.328125
2976.949219	25268.826172
2975.586914	25288.564453
2974.223633	25140.664063
2972.861328	25460.605469
2971.498047	25450.816406
2970.134766	25339.789063
2968.770508	25182.804688
2967.406250	25209.878906
2966.041992	25299.478516
2964.676758	25348.574219
2963.311523	25296.523438
2961.946289	25479.771484
2960.580078	25604.125000
2959.213867	25320.554688
2957.847656	25277.732422
2956.480469	25677.488281
2955.113281	25531.787109
2953.746094	25509.126953
2952.377930	25917.705078
2951.009766	25935.320313
2949.641602	25646.623047
2948.272461	25867.828125
2946.903320	25931.265625
2945.534180	26053.318359
2944.164063	26069.033203
2942.793945	25978.486328
2941.423828	26025.339844
2940.052734	26009.914063
2938.681641	26084.191406
2937.309570	26138.298828
2935.938477	26238.121094
2934.566406	26429.355469
2933.193359	26483.332031
2931.821289	26476.943359
2930.447266	26269.478516
2929.074219	26129.730469
2927.700195	26497.972656
2926.326172	26433.123047
2924.952148	26755.453125
2923.577148	26732.558594
2922.202148	26567.298828
2920.826172	26407.589844
2919.451172	26530.742188
2918.074219	26611.880859
2916.698242	26643.740234
2915.321289	26471.394531
2913.944336	26798.539063
2912.567383	26638.988281
2911.189453	26785.572266
2909.810547	26646.132813
2908.432617	26521.324219
2907.053711	26658.718750
2905.674805	26472.082031
2904.294922	26744.064453
2902.915039	26914.041016
2901.535156	26947.529297
2900.155273	27304.648438
2898.774414	27019.906250
2897.392578	26989.728516
2896.011719	27133.988281
2894.629883	27171.003906
2893.248047	27198.916016
2891.865234	26903.636719
2890.482422	27000.570313
2889.099609	27429.550781
2887.715820	27223.320313
2886.332031	27545.015625
2884.948242	27286.261719
2883.563477	27629.535156
2882.178711	27238.568359
2880.792969	27494.699219
2879.408203	27533.308594
2878.022461	27236.822266
2876.635742	27320.738281
2875.249023	27540.382813
2873.862305	27066.734375
2872.475586	27318.898438
2871.087891	27428.027344
2869.700195	27236.878906
2868.311523	27242.904297
2866.923828	27465.847656
2865.534180	27697.712891
2864.145508	27447.048828
2862.755859	27572.226563
2861.366211	27612.460938
2859.975586	27430.601563
2858.584961	27658.568359
2857.194336	27628.365234
2855.802734	27616.216797
2854.411133	27687.041016
2853.019531	27528.810547
2851.626953	27974.605469
2850.234375	27778.527344
2848.841797	27636.599609
2847.448242	27773.974609
2846.054688	27596.089844
2844.661133	27340.863281
2843.266602	27552.007813
2841.872070	27676.658203
2840.476563	27507.957031
2839.082031	27407.693359
2837.686523	27336.250000
2836.290039	27340.353516
2834.893555	27592.515625
2833.497070	27450.982422
2832.099609	27269.990234
2830.703125	27320.796875
2829.304688	27364.394531
2827.907227	27240.998047
2826.508789	27293.560547
2825.109375	27351.478516
2823.710938	27298.134766
2822.311523	27573.044922
2820.911133	27562.703125
2819.511719	27469.898438
2818.111328	27452.412109
2816.709961	27393.718750
2815.308594	27687.958984
2813.907227	27260.291016
2812.505859	28021.742188
2811.103516	27361.486328
2809.701172	27659.013672
2808.297852	27800.730469
2806.894531	27572.097656
2805.491211	27810.332031
2804.087891	27671.199219
2802.683594	27557.156250
2801.278320	27936.382813
2799.874023	27566.845703
2798.468750	27729.753906
2797.062500	27689.011719
2795.657227	27782.179688
2794.250977	27862.806641
2792.843750	27779.226563
2791.437500	27617.191406
2790.029297	27881.490234
2788.622070	27840.753906
2787.213867	28022.861328
2785.805664	27912.597656
2784.396484	28215.751953
2782.988281	28360.214844
2781.578125	27989.935547
2780.168945	28328.445313
2778.758789	28163.046875
2777.347656	28284.236328
2775.937500	28291.500000
2774.526367	28076.421875
2773.114258	28338.015625
2771.703125	28347.029297
2770.290039	28501.779297
2768.877930	28510.742188
2767.464844	28423.767578
2766.051758	28430.962891
2764.637695	28370.679688
2763.224609	28084.974609
2761.809570	28280.361328
2760.395508	28610.496094
2758.980469	28449.105469
2757.564453	28559.125000
2756.149414	28619.443359
2754.733398	28569.832031
2753.316406	28899.472656
2751.900391	28780.714844
2750.483398	28716.919922
2749.065430	28791.277344
2747.647461	28964.734375
2746.229492	28931.021484
2744.811523	28915.017578
2743.392578	29415.578125
2741.972656	29157.158203
2740.553711	29300.236328
2739.133789	29349.550781
2737.712891	29174.392578
2736.292969	29168.935547
2734.872070	29205.871094
2733.450195	28988.486328
2732.028320	29191.402344
2730.606445	29138.277344
2729.184570	29425.753906
2727.761719	29365.533203
2726.338867	29391.765625
2724.915039	29410.927734
2723.491211	29502.357422
2722.067383	29607.837891
2720.642578	29137.078125
2719.217773	29505.068359
2717.792969	29344.525391
2716.367188	29486.904297
2714.941406	29470.783203
2713.514648	29583.134766
2712.088867	29340.027344
2710.661133	29526.228516
2709.234375	29719.367188
2707.806641	29571.333984
2706.378906	29694.054688
2704.950195	29672.615234
2703.521484	29633.617188
2702.091797	29605.173828
2700.663086	29701.412109
2699.233398	29781.798828
2697.802734	29749.820313
2696.372070	30186.335938
2694.941406	29956.044922
2693.509766	29810.044922
2692.078125	29892.042969
2690.646484	29877.589844
2689.214844	29842.111328
2687.781250	30125.511719
2686.348633	29890.304688
2684.915039	30206.816406
2683.481445	30225.550781
2682.047852	30035.992188
2680.613281	30147.494141
2679.178711	30171.468750
2677.743164	30326.597656
2676.307617	30326.029297
2674.872070	30325.458984
2673.435547	30389.546875
2671.999023	30298.099609
2670.561523	30416.306641
2669.125000	30125.812500
2667.686523	30432.552734
2666.249023	30604.736328
2664.810547	30312.658203
2663.372070	30266.707031
2661.932617	30552.164063
2660.493164	30298.669922
2659.053711	30205.679688
2657.613281	30684.384766
2656.172852	30613.988281
2654.731445	30604.595703
2653.291016	30464.587891
2651.848633	30632.820313
2650.407227	30668.677734
2648.964844	30667.966797
2647.521484	30597.664063
2646.079102	30807.427734
2644.635742	30791.023438
2643.191406	30468.652344
2641.747070	30737.375000
2640.302734	30924.292969
2638.858398	30972.138672
2637.413086	30856.705078
2635.967773	30954.890625
2634.521484	31118.988281
2633.075195	30977.562500
2631.627930	31320.271484
2630.181641	31255.179688
2628.733398	31347.925781
2627.286133	31407.681641
2625.837891	31408.472656
2624.389648	31456.046875
2622.940430	31389.253906
2621.491211	31239.359375
2620.041992	31678.255859
2618.591797	31545.667969
2617.141602	31776.582031
2615.690430	31637.107422
2614.240234	31681.058594
2612.788086	31664.458984
2611.336914	31848.416016
2609.884766	31997.708984
2608.431641	32124.458984
2606.979492	31819.238281
2605.525391	31674.794922
2604.072266	31868.865234
2602.618164	31817.695313
2601.164063	31875.281250
2599.708984	31760.289063
2598.253906	31857.527344
2596.798828	32120.273438
2595.342773	32143.228516
2593.886719	32074.812500
2592.430664	32173.585938
2590.973633	32263.689453
2589.516602	32391.640625
2588.058594	32259.503906
2586.600586	32068.898438
2585.142578	32415.371094
2583.683594	32372.794922
2582.224609	32192.615234
2580.764648	32433.878906
2579.304688	32563.255859
2577.844727	32623.808594
2576.383789	32175.646484
2574.923828	32423.529297
2573.461914	32484.062500
2572.000000	32417.486328
2570.538086	32510.599609
2569.076172	32559.041016
2567.613281	32813.359375
2566.150391	32757.048828
2564.686523	32582.423828
2563.222656	32413.027344
2561.758789	32679.115234
2560.293945	32624.595703
2558.829102	32871.640625
2557.363281	33075.738281
2555.897461	32582.761719
2554.431641	32708.070313
2552.964844	32793.945313
2551.498047	32884.906250
2550.031250	33056.218750
2548.563477	33285.593750
2547.095703	32829.199219
2545.626953	32679.019531
2544.158203	32939.066406
2542.689453	33089.632813
2541.219727	33077.847656
2539.750000	33144.621094
2538.280273	33009.898438
2536.809570	32929.859375
2535.337891	33172.367188
2533.867188	33143.500000
2532.395508	33182.863281
2530.922852	33133.539063
2529.451172	33387.671875
2527.978516	33469.539063
2526.504883	33375.871094
2525.031250	33466.214844
2523.557617	33461.140625
2522.083008	33425.421875
2520.608398	33592.265625
2519.133789	33733.496094
2517.658203	33476.570313
2516.182617	33624.554688
2514.706055	33797.964844
2513.229492	33627.902344
2511.752930	33626.171875
2510.275391	33843.617188
2508.797852	33726.316406
2507.319336	33607.378906
2505.840820	33829.746094
2504.362305	33804.187500
2502.882813	34170.621094
2501.403320	33946.492188
2499.923828	34199.066406
2498.443359	34146.296875
2496.962891	34222.382813
2495.481445	33995.066406
2494.000000	34213.468750
2492.518555	34187.835938
2491.036133	33965.773438
2489.553711	34283.894531
2488.071289	34556.152344
2486.587891	34247.851563
2485.103516	34300.046875
2483.620117	34095.132813
2482.135742	34257.242188
2480.650391	34547.738281
2479.165039	34437.546875
2477.679688	34552.125000
2476.194336	34832.179688
2474.708008	34539.609375
2473.220703	34571.335938
2471.733398	34641.867188
2470.246094	34687.042969
2468.758789	34679.898438
2467.270508	34932.488281
2465.782227	34866.261719
2464.292969	35113.609375
2462.803711	34888.945313
2461.313477	35080.554688
2459.823242	35201.316406
2458.333008	35357.375000
2456.841797	35355.097656
2455.350586	35426.875000
2453.859375	35183.945313
2452.367188	35353.296875
2450.875000	35314.007813
2449.381836	35530.308594
2447.888672	35734.734375
2446.395508	35555.878906
2444.901367	35578.726563
2443.407227	35897.191406
2441.912109	35641.175781
2440.417969	35596.820313
2438.921875	35441.710938
2437.425781	35639.054688
2435.929688	35712.152344
2434.433594	35765.085938
2432.936523	35859.910156
2431.439453	35760.226563
2429.941406	35823.152344
2428.443359	35857.558594
2426.944336	35786.421875
2425.446289	35666.753906
2423.946289	35885.320313
2422.447266	35854.386719
2420.947266	35975.734375
2419.446289	36046.832031
2417.945313	36390.496094
2416.444336	36334.371094
2414.942383	36291.644531
2413.440430	35934.757813
2411.938477	36039.171875
2410.435547	36049.992188
2408.932617	36135.949219
2407.429688	36273.609375
2405.925781	36150.828125
2404.420898	36238.351563
2402.916016	36609.410156
2401.411133	36256.480469
2399.906250	36098.804688
2398.400391	36661.296875
2396.893555	35993.656250
2395.387695	36410.933594
2393.880859	36414.929688
2392.373047	36513.832031
2390.865234	36496.148438
2389.357422	37142.531250
2387.848633	36519.031250
2386.339844	36717.601563
2384.830078	36911.074219
2383.320313	36730.359375
2381.810547	37045.062500
2380.299805	36935.851563
2378.789063	36805.097656
2377.278320	36870.394531
2375.766602	36995.429688
2374.254883	36892.968750
2372.742188	36780.601563
2371.229492	36862.414063
2369.715820	36970.722656
2368.203125	37365.863281
2366.688477	37459.058594
2365.174805	37210.757813
2363.660156	37173.027344
2362.144531	37178.386719
2360.628906	37195.332031
2359.113281	37463.945313
2357.596680	37535.429688
2356.080078	37232.859375
2354.563477	37430.101563
2353.045898	37670.242188
2351.528320	37725.050781
2350.009766	37270.625000
2348.491211	37446.156250
2346.971680	37656.289063
2345.452148	37464.886719
2343.932617	37663.339844
2342.413086	37975.617188
2340.891602	37594.437500
2339.371094	37873.558594
2337.849609	37683.976563
2336.328125	37811.175781
2334.805664	37852.558594
2333.283203	37908.753906
2331.760742	37969.863281
2330.237305	38484.054688
2328.712891	38073.851563
2327.189453	38227.082031
2325.665039	38246.867188
2324.139648	38151.421875
2322.614258	38118.550781
2321.088867	38312.726563
2319.562500	38745.285156
2318.036133	38414.656250
2316.509766	38141.726563
2314.982422	38192.699219
2313.455078	38324.152344
2311.926758	38363.546875
2310.398438	38196.000000
2308.869141	38310.921875
2307.339844	38302.679688
2305.810547	38486.425781
2304.280273	38799.671875
2302.750000	38569.886719
2301.218750	38933.773438
2299.688477	38600.792969
2298.156250	38561.328125
2296.624023	38762.726563
2295.091797	38847.718750
2293.559570	38569.125000
2292.026367	38536.246094
2290.492188	38707.964844
2288.958984	38792.867188
2287.423828	38872.816406
2285.889648	38836.601563
2284.354492	38633.636719
2282.818359	38680.859375
2281.283203	38978.085938
2279.746094	38883.054688
2278.209961	38900.765625
2276.672852	39114.414063
2275.134766	39225.101563
2273.596680	39033.800781
2272.058594	39053.070313
2270.519531	39447.507813
2268.980469	39140.500000
2267.441406	38845.058594
2265.901367	39408.746094
2264.361328	39088.937500
2262.820313	39464.917969
2261.279297	39457.957031
2259.737305	39426.574219
2258.195313	39387.066406
2256.653320	39383.375000
2255.110352	39504.964844
2253.567383	39480.093750
2252.024414	39601.585938
2250.480469	39794.542969
2248.935547	39990.644531
2247.390625	39697.554688
2245.845703	39807.476563
2244.300781	39816.648438
2242.754883	40205.738281
2241.208008	40133.636719
2239.661133	39845.734375
2238.114258	39720.218750
2236.566406	39805.613281
2235.018555	39899.066406
2233.470703	40289.128906
2231.921875	40072.851563
2230.373047	39984.687500
2228.823242	40374.410156
2227.273438	40331.546875
2225.722656	40427.937500
2224.171875	40423.917969
2222.621094	40424.753906
2221.069336	40585.742188
2219.517578	40604.316406
2217.964844	40428.851563
2216.412109	40665.675781
2214.859375	40574.312500
2213.305664	40613.859375
2211.751953	40766.449219
2210.197266	40783.312500
2208.642578	40742.042969
2207.086914	40758.894531
2205.531250	40899.976563
2203.975586	40894.187500
2202.418945	41054.507813
2200.862305	41156.695313
2199.305664	41341.035156
2197.748047	41319.007813
2196.189453	41371.093750
2194.630859	41307.187500
2193.072266	41335.089844
2191.512695	41400.000000
2189.953125	41361.871094
2188.393555	41565.101563
2186.833008	41884.031250
2185.272461	41702.679688
2183.710938	41476.398438
2182.149414	41599.007813
2180.586914	41644.421875
2179.024414	41723.542969
2177.461914	41927.886719
2175.898438	42064.683594
2174.334961	42012.000000
2172.770508	42020.316406
2171.206055	42156.972656
2169.641602	41919.843750
2168.076172	42064.464844
2166.509766	42101.601563
2164.944336	42260.515625
2163.377930	42222.265625
2161.810547	42616.527344
2160.243164	42387.632813
2158.675781	42261.312500
2157.107422	42323.925781
2155.538086	42634.527344
2153.969727	42575.421875
2152.400391	42545.128906
2150.830078	42813.843750
2149.259766	42815.468750
2147.689453	42881.011719
2146.118164	42676.511719
2144.546875	42662.187500
2142.974609	42920.921875
2141.402344	42659.089844
