#Wave		#Intensity
3550.429688	19357.574219
3549.198242	19406.478516
3547.965820	19638.652344
3546.733398	19491.888672
3545.500977	19668.960938
3544.268555	19843.917969
3543.035156	19735.871094
3541.801758	19601.410156
3540.568359	19762.023438
3539.333984	19802.548828
3538.099609	19558.332031
3536.865234	20034.003906
3535.630859	19680.064453
3534.395508	19488.869141
3533.160156	19765.107422
3531.924805	19600.380859
3530.689453	19732.263672
3529.453125	19878.304688
3528.216797	19778.619141
3526.980469	19875.867188
3525.743164	19743.751953
3524.505859	19711.109375
3523.268555	19662.248047
3522.031250	19694.531250
3520.792969	19972.138672
3519.555664	19854.324219
3518.316406	20040.570313
3517.078125	19910.628906
3515.838867	19784.792969
3514.599609	19995.232422
3513.360352	20126.603516
3512.121094	20102.023438
3510.880859	20069.355469
3509.640625	19818.138672
3508.399414	19967.636719
3507.159180	20003.787109
3505.917969	19942.845703
3504.676758	20158.937500
3503.434570	20075.748047
3502.192383	19855.158203
3500.951172	20044.853516
3499.708008	20157.695313
3498.465820	20228.072266
3497.222656	20029.843750
3495.979492	20168.855469
3494.735352	20422.855469
3493.492188	20295.337891
3492.248047	20296.998047
3491.003906	20343.033203
3489.758789	20231.742188
3488.514648	20098.318359
3487.268555	20331.833984
3486.023438	20285.103516
3484.778320	20721.984375
3483.532227	20437.470703
3482.286133	20294.062500
3481.039063	20327.917969
3479.792969	20591.265625
3478.545898	20649.191406
3477.297852	20266.382813
3476.050781	20424.945313
3474.802734	20313.898438
3473.554688	20124.466797
3472.306641	20506.125000
3471.057617	20704.691406
3469.808594	20657.980469
3468.559570	20551.009766
3467.310547	20667.066406
3466.060547	20574.195313
3464.810547	20320.724609
3463.559570	20661.591797
3462.309570	20548.705078
3461.058594	20556.263672
3459.807617	20742.371094
3458.556641	20370.787109
3457.304688	20554.843750
3456.052734	20662.630859
3454.800781	20676.158203
3453.547852	20850.000000
3452.294922	20717.214844
3451.041992	20724.705078
3449.789063	20920.445313
3448.535156	20963.923828
3447.281250	20510.923828
3446.027344	20800.642578
3444.772461	20856.117188
3443.518555	20921.570313
3442.263672	20762.980469
3441.007813	20672.445313
3439.752930	20917.816406
3438.497070	20805.296875
3437.241211	20782.748047
3435.984375	20804.162109
3434.727539	20953.402344
3433.470703	20934.824219
3432.213867	21131.882813
3430.956055	20857.761719
3429.699219	21182.470703
3428.440430	20938.382813
3427.182617	21065.439453
3425.923828	21054.824219
3424.665039	21123.968750
3423.406250	21029.613281
3422.146484	21144.570313
3420.886719	21163.826172
3419.626953	21039.634766
3418.367188	20899.560547
3417.106445	21114.000000
3415.845703	21111.337891
3414.584961	20949.437500
3413.323242	21098.048828
3412.061523	21198.841797
3410.799805	20979.337891
3409.538086	21288.919922
3408.275391	21031.710938
3407.012695	21054.896484
3405.750000	20730.277344
3404.486328	21079.371094
3403.222656	21152.185547
3401.958984	21107.787109
3400.695313	21047.521484
3399.430664	21100.433594
3398.166016	21169.199219
3396.901367	21293.494141
3395.635742	21153.876953
3394.370117	21180.925781
3393.104492	21172.265625
3391.838867	20757.189453
3390.572266	21182.703125
3389.305664	20965.968750
3388.039063	20903.861328
3386.771484	20786.320313
3385.503906	21167.873047
3384.236328	21230.490234
3382.968750	21156.494141
3381.700195	21323.970703
3380.431641	20955.173828
3379.163086	21253.171875
3377.893555	21131.761719
3376.624023	21210.107422
3375.354492	21094.687500
3374.083984	21088.017578
3372.814453	21267.085938
3371.543945	20863.300781
3370.272461	21293.167969
3369.001953	21276.578125
3367.730469	21143.513672
3366.458008	21113.142578
3365.186523	21153.822266
3363.914063	21535.785156
3362.641602	21199.615234
3361.369141	21080.509766
3360.095703	21134.951172
3358.822266	20755.722656
3357.548828	21385.640625
3356.274414	21225.214844
3355.000000	21340.628906
3353.725586	21095.599609
3352.451172	21287.773438
3351.175781	21184.589844
3349.900391	21148.363281
3348.625000	21501.730469
3347.348633	21441.837891
3346.072266	21507.839844
3344.795898	21475.494141
3343.519531	21567.009766
3342.242188	21414.773438
3340.964844	21360.849609
3339.687500	21501.433594
3338.409180	21363.056641
3337.130859	21250.265625
3335.852539	21290.650391
3334.573242	21301.574219
3333.294922	21428.265625
3332.014648	21603.943359
3330.735352	21377.451172
3329.455078	21451.087891
3328.174805	21267.857422
3326.894531	21668.814453
3325.613281	21593.394531
3324.333008	21494.496094
3323.050781	21327.082031
3321.769531	21621.906250
3320.487305	21540.681641
3319.205078	21735.490234
3317.922852	21844.101563
3316.639648	21670.916016
3315.356445	21505.628906
3314.073242	21577.052734
3312.789063	21806.816406
3311.505859	21911.367188
3310.220703	21961.146484
3308.936523	21983.544922
3307.651367	22046.955078
3306.366211	21889.638672
3305.081055	21824.166016
3303.794922	21809.474609
3302.508789	21689.394531
3301.222656	21692.296875
3299.936523	21837.607422
3298.649414	22078.417969
3297.362305	21901.828125
3296.074219	21857.880859
3294.787109	22147.244141
3293.499023	22021.414063
3292.209961	22127.474609
3290.921875	21956.904297
3289.632813	22183.658203
3288.343750	22143.585938
3287.053711	22025.673828
3285.763672	22213.332031
3284.473633	22227.748047
3283.183594	22230.486328
3281.892578	22311.005859
3280.601563	22410.929688
3279.310547	22137.599609
3278.018555	22163.666016
3276.726563	22395.662109
3275.434570	22394.458984
3274.142578	22356.353516
3272.849609	22137.699219
3271.556641	22579.123047
3270.262695	22410.968750
3268.969727	22448.554688
3267.675781	22546.255859
3266.380859	22498.457031
3265.086914	22489.455078
3263.791992	22643.287109
3262.497070	22413.316406
3261.201172	22321.017578
3259.905273	22441.843750
3258.609375	22500.638672
3257.313477	22594.255859
3256.016602	22668.470703
3254.719727	22645.878906
3253.422852	22793.570313
3252.125000	22498.191406
3250.827148	22514.328125
3249.529297	22300.355469
3248.230469	22614.234375
3246.931641	22755.953125
3245.632813	22907.265625
3244.333984	22625.773438
3243.034180	22719.101563
3241.734375	22827.830078
3240.434570	22720.289063
3239.133789	22495.058594
3237.833008	22734.972656
3236.532227	23090.525391
3235.230469	22817.138672
3233.928711	22603.654297
3232.626953	23022.603516
3231.325195	23001.906250
3230.022461	22738.416016
3228.719727	23004.843750
3227.416016	22970.673828
3226.112305	22755.505859
3224.808594	23031.363281
3223.504883	22999.128906
3222.200195	23172.810547
3220.895508	22994.337891
3219.590820	23077.533203
3218.286133	22768.392578
3216.980469	22872.746094
3215.673828	23061.621094
3214.368164	22900.660156
3213.061523	22949.185547
3211.754883	22924.697266
3210.448242	23048.083984
3209.140625	22971.740234
3207.833008	23045.148438
3206.525391	23254.771484
3205.216797	23072.904297
3203.908203	23107.867188
3202.599609	23094.869141
3201.290039	23218.000000
3199.980469	22990.294922
3198.670898	23017.568359
3197.360352	23171.279297
3196.050781	23146.777344
3194.740234	23049.511719
3193.428711	23159.064453
3192.117188	23094.376953
3190.805664	23326.341797
3189.494141	23089.445313
3188.181641	23126.189453
3186.869141	23170.564453
3185.556641	23195.796875
3184.243164	23079.564453
3182.929688	22969.115234
3181.616211	23156.773438
3180.302734	23134.220703
3178.988281	23449.699219
3177.673828	23522.550781
3176.358398	23492.285156
3175.042969	23181.496094
3173.727539	23069.277344
3172.412109	23012.425781
3171.095703	22951.783203
3169.779297	23404.054688
3168.462891	23129.849609
3167.145508	23208.335938
3165.828125	23465.882813
3164.510742	23292.804688
3163.192383	23215.027344
3161.874023	23403.841797
3160.555664	23425.054688
3159.236328	23195.042969
3157.917969	23298.103516
3156.597656	23275.566406
3155.278320	23511.679688
3153.958008	23289.458984
3152.637695	23259.328125
3151.316406	23126.583984
3149.996094	23030.000000
3148.674805	23277.279297
3147.352539	23152.214844
3146.031250	23348.080078
3144.708984	23420.468750
3143.385742	23276.470703
3142.063477	23411.449219
3140.740234	23449.619141
3139.416016	23284.845703
3138.092773	23178.923828
3136.768555	23560.214844
3135.444336	23473.224609
3134.119141	23431.746094
3132.793945	23608.123047
3131.468750	23500.341797
3130.143555	23759.923828
3128.817383	23716.513672
3127.491211	23688.259766
3126.164063	23484.058594
3124.836914	23711.234375
3123.509766	23537.375000
3122.182617	23650.982422
3120.854492	23507.458984
3119.526367	23868.583984
3118.198242	23874.332031
3116.869141	23693.070313
3115.540039	23477.896484
3114.210938	23634.769531
3112.880859	24010.529297
3111.550781	23578.400391
3110.220703	23606.833984
3108.889648	23937.058594
3107.559570	23906.927734
3106.227539	24052.150391
3104.896484	23982.417969
3103.564453	23799.644531
3102.232422	23933.478516
3100.899414	23839.328125
3099.566406	23754.634766
3098.233398	23760.349609
3096.900391	23993.820313
3095.566406	24212.123047
3094.232422	24121.765625
3092.897461	23975.021484
3091.563477	24074.691406
3090.228516	23882.898438
3088.892578	23924.269531
3087.556641	24495.558594
3086.220703	24339.490234
3084.884766	24313.097656
3083.547852	24078.267578
3082.210938	24277.238281
3080.874023	24309.056641
3079.536133	24258.291016
3078.198242	24466.449219
3076.860352	24370.648438
3075.521484	24389.277344
3074.182617	24449.142578
3072.843750	24109.740234
3071.504883	24574.400391
3070.165039	24115.220703
3068.824219	24648.957031
3067.484375	24661.861328
3066.143555	24476.310547
3064.802734	24558.498047
3063.460938	24861.451172
3062.119141	24574.953125
3060.777344	24630.865234
3059.435547	24709.187500
3058.092773	24707.080078
3056.750000	24340.511719
3055.406250	24560.851563
3054.062500	24517.675781
3052.718750	24715.451172
3051.375000	24541.544922
3050.030273	24658.941406
3048.685547	24569.113281
3047.339844	24505.447266
3045.995117	24596.644531
3044.649414	24602.003906
3043.302734	24529.044922
3041.956055	24842.001953
3040.609375	24940.478516
3039.262695	24921.517578
3037.915039	25107.476563
3036.567383	25170.425781
3035.219727	24790.195313
3033.871094	24903.445313
3032.522461	24837.974609
3031.173828	24977.203125
3029.824219	24939.644531
3028.474609	24950.455078
3027.124023	24892.462891
3025.774414	24880.966797
3024.423828	24947.529297
3023.072266	24878.421875
3021.721680	24998.816406
3020.370117	25050.435547
3019.017578	25259.845703
3017.666016	25133.177734
3016.313477	24973.162109
3014.959961	24870.736328
3013.607422	25054.009766
3012.253906	25329.916016
3010.899414	25071.732422
3009.545898	25221.455078
3008.191406	25243.238281
3006.835938	25174.226563
3005.481445	25127.470703
3004.125977	25117.771484
3002.770508	25180.277344
3001.414063	25118.740234
3000.057617	25305.191406
2998.701172	25164.095703
2997.343750	25119.244141
2995.986328	25211.248047
2994.628906	25218.164063
2993.270508	24933.048828
2991.912109	25178.390625
2990.553711	24911.890625
2989.194336	25195.900391
2987.834961	25038.460938
2986.475586	25038.009766
2985.115234	25083.693359
2983.754883	25293.574219
2982.394531	25440.630859
2981.034180	25191.093750
2979.672852	25448.728516
2978.310547	25282.255859
2976.949219	25340.701172
2975.586914	25362.265625
2974.223633	25321.187500
2972.861328	25401.671875
2971.498047	25627.570313
2970.134766	25512.818359
2968.770508	25180.962891
2967.406250	25804.156250
2966.041992	25533.083984
2964.676758	25464.429688
2963.311523	25548.404297
2961.946289	25878.640625
2960.580078	25589.423828
2959.213867	25638.392578
2957.847656	25694.681641
2956.480469	25848.267578
2955.113281	25502.412109
2953.746094	25911.091797
2952.377930	25682.824219
2951.009766	25797.726563
2949.641602	26037.292969
2948.272461	25845.824219
2946.903320	26010.095703
2945.534180	26012.996094
2944.164063	25880.298828
2942.793945	26132.367188
2941.423828	25778.089844
2940.052734	26055.689453
2938.681641	26248.945313
2937.309570	26182.222656
2935.938477	26463.175781
2934.566406	26288.500000
2933.193359	26254.726563
2931.821289	26506.197266
2930.447266	26322.490234
2929.074219	26557.367188
2927.700195	26501.626953
2926.326172	26581.080078
2924.952148	26695.189453
2923.577148	26794.632813
2922.202148	26702.371094
2920.826172	26409.416016
2919.451172	26379.314453
2918.074219	26900.068359
2916.698242	26742.210938
2915.321289	26513.326172
2913.944336	26685.533203
2912.567383	26680.900391
2911.189453	26743.671875
2909.810547	26826.443359
2908.432617	26586.875000
2907.053711	26813.457031
2905.674805	26614.042969
2904.294922	27047.931641
2902.915039	27075.943359
2901.535156	26867.507813
2900.155273	27019.183594
2898.774414	26830.853516
2897.392578	26986.093750
2896.011719	27168.509766
2894.629883	27081.996094
2893.248047	26919.246094
2891.865234	27076.119141
2890.482422	27036.875000
2889.099609	26892.392578
2887.715820	27094.505859
2886.332031	27234.847656
2884.948242	27353.357422
2883.563477	27074.769531
2882.178711	27167.878906
2880.792969	27585.304688
2879.408203	27087.644531
2878.022461	27347.306641
2876.635742	27226.578125
2875.249023	27372.023438
2873.862305	27349.076172
2872.475586	27279.091797
2871.087891	27234.464844
2869.700195	27298.369141
2868.311523	27497.849609
2866.923828	27292.310547
2865.534180	27312.771484
2864.145508	27344.062500
2862.755859	27292.240234
2861.366211	27672.056641
2859.975586	27179.640625
2858.584961	27485.285156
2857.194336	27581.447266
2855.802734	27325.746094
2854.411133	27512.080078
2853.019531	27570.287109
2851.626953	27493.248047
2850.234375	27542.414063
2848.841797	27578.937500
2847.448242	27334.404297
2846.054688	27435.794922
2844.661133	27418.291016
2843.266602	27290.980469
2841.872070	27284.312500
2840.476563	27115.707031
2839.082031	27226.005859
2837.686523	27417.179688
2836.290039	27174.937500
2834.893555	27173.685547
2833.497070	27217.357422
2832.099609	27244.835938
2830.703125	27087.287109
2829.304688	27012.416016
2827.907227	27284.085938
2826.508789	27108.683594
2825.109375	27189.974609
2823.710938	27091.820313
2822.311523	27277.099609
2820.911133	27144.896484
2819.511719	27168.720703
2818.111328	27058.109375
2816.709961	27146.443359
2815.308594	27030.513672
2813.907227	27348.048828
2812.505859	27344.921875
2811.103516	27076.861328
2809.701172	27148.962891
2808.297852	27127.986328
2806.894531	27325.248047
2805.491211	27284.562500
2804.087891	27395.863281
2802.683594	27457.058594
2801.278320	27450.314453
2799.874023	27247.048828
2798.468750	27308.226563
2797.062500	27656.869141
2795.657227	27321.583984
2794.250977	27496.917969
2792.843750	27524.060547
2791.437500	27572.593750
2790.029297	27423.130859
2788.622070	27468.093750
2787.213867	27495.205078
2785.805664	27511.605469
2784.396484	27572.541016
2782.988281	27521.218750
2781.578125	27747.736328
2780.168945	27687.490234
2778.758789	27771.449219
2777.347656	27743.251953
2775.937500	27980.154297
2774.526367	27829.185547
2773.114258	27849.000000
2771.703125	28060.802734
2770.290039	27579.328125
2768.877930	27995.433594
2767.464844	28057.810547
2766.051758	27923.013672
2764.637695	27731.460938
2763.224609	27859.529297
2761.809570	28083.367188
2760.395508	28042.722656
2758.980469	27913.400391
2757.564453	28089.169922
2756.149414	28131.875000
2754.733398	28027.433594
2753.316406	28252.654297
2751.900391	28220.867188
2750.483398	28314.851563
2749.065430	28229.937500
2747.647461	28410.613281
2746.229492	28313.322266
2744.811523	28451.414063
2743.392578	28601.820313
2741.972656	28378.974609
2740.553711	28619.492188
2739.133789	28536.396484
2737.712891	28614.162109
2736.292969	28554.070313
2734.872070	28630.019531
2733.450195	28527.566406
2732.028320	28605.244141
2730.606445	28688.175781
2729.184570	28809.886719
2727.761719	28746.291016
2726.338867	28735.636719
2724.915039	28432.269531
2723.491211	28851.843750
2722.067383	28855.261719
2720.642578	28849.865234
2719.217773	28707.062500
2717.792969	29001.097656
2716.367188	29000.943359
2714.941406	28914.531250
2713.514648	29178.369141
2712.088867	28919.527344
2710.661133	28792.734375
2709.234375	29003.640625
2707.806641	29421.896484
2706.378906	29038.443359
2704.950195	29136.660156
2703.521484	28901.033203
2702.091797	29267.953125
2700.663086	29278.234375
2699.233398	29232.332031
2697.802734	29068.861328
2696.372070	29424.833984
2694.941406	29138.599609
2693.509766	29117.318359
2692.078125	29427.417969
2690.646484	29274.603516
2689.214844	29430.291016
2687.781250	29214.474609
2686.348633	29300.031250
2684.915039	29201.673828
2683.481445	29253.921875
2682.047852	29313.140625
2680.613281	29683.794922
2679.178711	29405.242188
2677.743164	29146.064453
2676.307617	29432.544922
2674.872070	29727.619141
2673.435547	29470.292969
2671.999023	29553.794922
2670.561523	29684.416016
2669.125000	29799.250000
2667.686523	29439.142578
2666.249023	29557.466797
2664.810547	29591.966797
2663.372070	29626.447266
2661.932617	29772.533203
2660.493164	29878.437500
2659.053711	29605.994141
2657.613281	29616.025391
2656.172852	29819.453125
2654.731445	29756.257813
2653.291016	29943.871094
2651.848633	29678.701172
2650.407227	29946.302734
2648.964844	29872.685547
2647.521484	29717.330078
2646.079102	29932.533203
2644.635742	29704.199219
2643.191406	29881.044922
2641.747070	29724.093750
2640.302734	29954.705078
2638.858398	30141.767578
2637.413086	30106.431641
2635.967773	30326.347656
2634.521484	30322.222656
2633.075195	30446.519531
2631.627930	30261.919922
2630.181641	30434.730469
2628.733398	30414.962891
2627.286133	30613.646484
2625.837891	30340.781250
2624.389648	30587.898438
2622.940430	30488.410156
2621.491211	30442.658203
2620.041992	30750.158203
2618.591797	30595.298828
2617.141602	30501.087891
2615.690430	30465.748047
2614.240234	30800.597656
2612.788086	30652.787109
2611.336914	30921.714844
2609.884766	30557.880859
2608.431641	30589.951172
2606.979492	30806.855469
2605.525391	31004.648438
2604.072266	31103.916016
2602.618164	30880.308594
2601.164063	31165.943359
2599.708984	30850.978516
2598.253906	30815.621094
2596.798828	30868.230469
2595.342773	30924.259766
2593.886719	30735.488281
2592.430664	30884.574219
2590.973633	31093.878906
2589.516602	31079.164063
2588.058594	31214.263672
2586.600586	31256.330078
2585.142578	30830.230469
2583.683594	31259.517578
2582.224609	31310.130859
2580.764648	31085.548828
2579.304688	31297.794922
2577.844727	31202.242188
2576.383789	31074.083984
2574.923828	31365.195313
2573.461914	31108.230469
2572.000000	31160.488281
2570.538086	31343.193359
2569.076172	31386.777344
2567.613281	31684.291016
2566.150391	31389.812500
2564.686523	31419.623047
2563.222656	31384.261719
2561.758789	31611.181641
2560.293945	31524.369141
2558.829102	31704.875000
2557.363281	31751.681641
2555.897461	31485.082031
2554.431641	31703.115234
2552.964844	31482.871094
2551.498047	31702.500000
2550.031250	31499.466797
2548.563477	31518.869141
2547.095703	31598.105469
2545.626953	31487.550781
2544.158203	31633.398438
2542.689453	31427.207031
2541.219727	31798.462891
2539.750000	31698.203125
2538.280273	31794.328125
2536.809570	32161.785156
2535.337891	32186.068359
2533.867188	31754.841797
2532.395508	31891.775391
2530.922852	31866.650391
2529.451172	31967.679688
2527.978516	31939.132813
2526.504883	31942.970703
2525.031250	31929.769531
2523.557617	32066.429688
2522.083008	31836.978516
2520.608398	31905.503906
2519.133789	32137.349609
2517.658203	31959.082031
2516.182617	32437.404297
2514.706055	32095.910156
2513.229492	32466.853516
2511.752930	32130.617188
2510.275391	32227.808594
2508.797852	32155.083984
2507.319336	32231.835938
2505.840820	32230.447266
2504.362305	32446.316406
2502.882813	32232.753906
2501.403320	32472.255859
2499.923828	32445.353516
2498.443359	32433.724609
2496.962891	32501.769531
2495.481445	32401.996094
2494.000000	32397.154297
2492.518555	32451.595703
2491.036133	32553.425781
2489.553711	32717.839844
2488.071289	32765.380859
2486.587891	33076.871094
2485.103516	32650.599609
2483.620117	32528.980469
2482.135742	32779.410156
2480.650391	32975.617188
2479.165039	33109.191406
2477.679688	32908.152344
2476.194336	32987.617188
2474.708008	32759.685547
2473.220703	33323.683594
2471.733398	33230.804688
2470.246094	33040.101563
2468.758789	32861.300781
2467.270508	33262.769531
2465.782227	33218.890625
2464.292969	33468.343750
2462.803711	33057.031250
2461.313477	33146.332031
2459.823242	33270.953125
2458.333008	33476.343750
2456.841797	33508.214844
2455.350586	33351.554688
2453.859375	33300.984375
2452.367188	33721.476563
2450.875000	33383.230469
2449.381836	33408.343750
2447.888672	33554.472656
2446.395508	33566.078125
2444.901367	33990.992188
2443.407227	33595.984375
2441.912109	33323.761719
2440.417969	33402.554688
2438.921875	33978.121094
2437.425781	33565.046875
2435.929688	33786.300781
2434.433594	33760.902344
2432.936523	33566.160156
2431.439453	34008.507813
2429.941406	33805.417969
2428.443359	33868.824219
2426.944336	33804.894531
2425.446289	33903.425781
2423.946289	33795.984375
2422.447266	33845.925781
2420.947266	33942.687500
2419.446289	34260.214844
2417.945313	33977.171875
2416.444336	33981.859375
2414.942383	34035.011719
2413.440430	33936.062500
2411.938477	34159.609375
2410.435547	34129.152344
2408.932617	34056.960938
2407.429688	33956.425781
2405.925781	34077.914063
2404.420898	34082.539063
2402.916016	34212.265625
2401.411133	34090.097656
2399.906250	33934.644531
2398.400391	34412.679688
2396.893555	34365.535156
2395.387695	34226.777344
2393.880859	34262.976563
2392.373047	34462.343750
2390.865234	34523.425781
2389.357422	34762.558594
2387.848633	34364.296875
2386.339844	34293.937500
2384.830078	34403.214844
2383.320313	34469.210938
2381.810547	34654.843750
2380.299805	34456.511719
2378.789063	34525.753906
2377.278320	34825.820313
2375.766602	34591.058594
2374.254883	34685.101563
2372.742188	34913.523438
2371.229492	34705.457031
2369.715820	34872.375000
2368.203125	35102.222656
2366.688477	35011.968750
2365.174805	34668.160156
2363.660156	34647.656250
2362.144531	35079.417969
2360.628906	35128.375000
2359.113281	35226.972656
2357.596680	35145.082031
2356.080078	35010.273438
2354.563477	35143.558594
2353.045898	35371.058594
2351.528320	35314.007813
2350.009766	35220.609375
2348.491211	35047.921875
2346.971680	35242.152344
2345.452148	34968.769531
2343.932617	34921.789063
2342.413086	35066.355469
2340.891602	35235.605469
2339.371094	35670.457031
2337.849609	35184.468750
2336.328125	35160.566406
2334.805664	35435.140625
2333.283203	35576.035156
2331.760742	35248.781250
2330.237305	35577.484375
2328.712891	35306.402344
2327.189453	35396.117188
2325.665039	35482.492188
2324.139648	35491.453125
2322.614258	35666.613281
2321.088867	35548.839844
2319.562500	35464.019531
2318.036133	35875.820313
2316.509766	35641.359375
2314.982422	35505.621094
2313.455078	35752.777344
2311.926758	35695.921875
2310.398438	35578.328125
2308.869141	35931.984375
2307.339844	35628.910156
2305.810547	35778.886719
2304.280273	35484.203125
2302.750000	35611.171875
2301.218750	35988.941406
2299.688477	35969.816406
2298.156250	35953.972656
2296.624023	36110.167969
2295.091797	35963.253906
2293.559570	35868.812500
2292.026367	36106.753906
2290.492188	35858.468750
2288.958984	36004.648438
2287.423828	35985.531250
2285.889648	35948.429688
2284.354492	35980.015625
2282.818359	36253.500000
2281.283203	36329.105469
2279.746094	36357.289063
2278.209961	36026.125000
2276.672852	36020.074219
2275.134766	36118.503906
2273.596680	36164.652344
2272.058594	36313.562500
2270.519531	36170.410156
2268.980469	36369.792969
2267.441406	36303.320313
2265.901367	36473.218750
2264.361328	36419.781250
2262.820313	36529.281250
2261.279297	36536.109375
2259.737305	36586.898438
2258.195313	36606.726563
2256.653320	37061.058594
2255.110352	36550.347656
2253.567383	36532.750000
2252.024414	36833.878906
2250.480469	36853.601563
2248.935547	36861.929688
2247.390625	36922.250000
2245.845703	36652.769531
2244.300781	36709.855469
2242.754883	36567.203125
2241.208008	36947.292969
2239.661133	36882.539063
2238.114258	36653.957031
2236.566406	36863.414063
2235.018555	37011.144531
2233.470703	37152.304688
2231.921875	36967.636719
2230.373047	36964.527344
2228.823242	37287.003906
2227.273438	36866.000000
2225.722656	37225.562500
2224.171875	37230.468750
2222.621094	37015.300781
2221.069336	37502.335938
2219.517578	37313.082031
2217.964844	37720.550781
2216.412109	37136.910156
2214.859375	37348.664063
2213.305664	37568.386719
2211.751953	37663.617188
2210.197266	37623.152344
2208.642578	37805.492188
2207.086914	37555.187500
2205.531250	37898.796875
2203.975586	37934.113281
2202.418945	38012.953125
2200.862305	37974.054688
2199.305664	37674.046875
2197.748047	37949.480469
2196.189453	38110.382813
2194.630859	38095.640625
2193.072266	38146.921875
2191.512695	38027.535156
2189.953125	38035.347656
2188.393555	37999.710938
2186.833008	38292.226563
2185.272461	38108.589844
2183.710938	38527.921875
2182.149414	38376.460938
2180.586914	38284.523438
2179.024414	38359.699219
2177.461914	38780.121094
2175.898438	38834.250000
2174.334961	38456.558594
2172.770508	38371.121094
2171.206055	38534.398438
2169.641602	38596.539063
2168.076172	38679.488281
2166.509766	38597.273438
2164.944336	38951.023438
2163.377930	38748.605469
2161.810547	38626.382813
2160.243164	38910.976563
2158.675781	38815.984375
2157.107422	38831.476563
2155.538086	38730.148438
2153.969727	38745.648438
2152.400391	38647.585938
2150.830078	39018.046875
2149.259766	39001.480469
2147.689453	39147.917969
2146.118164	39013.093750
2144.546875	38988.542969
2142.974609	38922.484375
2141.402344	39311.429688
