#Wave		#Intensity
3550.258789	27757.923828
3549.027344	27617.332031
3547.794922	27470.875000
3546.562500	27552.591797
3545.330078	27911.201172
3544.096680	27443.105469
3542.863281	27781.224609
3541.629883	27620.630859
3540.396484	27710.349609
3539.162109	27966.822266
3537.928711	27576.476563
3536.693359	27773.898438
3535.458984	27582.968750
3534.223633	27597.386719
3532.989258	27372.029297
3531.752930	27504.304688
3530.517578	27756.353516
3529.281250	27703.699219
3528.044922	27474.437500
3526.808594	27695.875000
3525.571289	27645.287109
3524.333984	27627.179688
3523.096680	27663.843750
3521.859375	27805.945313
3520.621094	27826.330078
3519.382813	27623.716797
3518.144531	27514.416016
3516.906250	28002.906250
3515.666992	27650.466797
3514.427734	27537.169922
3513.188477	27687.164063
3511.948242	27630.589844
3510.708008	27675.238281
3509.467773	27673.324219
3508.227539	27531.804688
3506.986328	27762.531250
3505.745117	27784.857422
3504.503906	27604.978516
3503.262695	27890.113281
3502.020508	27805.271484
3500.778320	27918.482422
3499.535156	27645.791016
3498.292969	27857.947266
3497.049805	27880.195313
3495.806641	27851.960938
3494.563477	27904.470703
3493.319336	28090.140625
3492.075195	28067.921875
3490.831055	28136.478516
3489.585938	28013.419922
3488.340820	27938.798828
3487.095703	28059.740234
3485.850586	28188.687500
3484.604492	28192.650391
3483.358398	28196.607422
3482.112305	27954.849609
3480.866211	27836.021484
3479.619141	27900.439453
3478.372070	27777.642578
3477.125000	27884.296875
3475.876953	27998.949219
3474.629883	27842.007813
3473.380859	28085.316406
3472.132813	28095.292969
3470.883789	28290.191406
3469.634766	28149.388672
3468.385742	28093.029297
3467.136719	28024.640625
3465.886719	28219.373047
3464.636719	28167.042969
3463.386719	27984.246094
3462.135742	28072.476563
3460.884766	27960.003906
3459.633789	27971.960938
3458.381836	28102.246094
3457.130859	27955.742188
3455.878906	28027.828125
3454.625977	28015.693359
3453.374023	28205.962891
3452.121094	28287.955078
3450.868164	27827.068359
3449.614258	28031.263672
3448.361328	28209.337891
3447.107422	28221.181641
3445.853516	28038.886719
3444.598633	28258.851563
3443.343750	28258.664063
3442.088867	28256.474609
3440.833984	28220.289063
3439.578125	28579.949219
3438.322266	28177.937500
3437.066406	28145.779297
3435.809570	27901.863281
3434.553711	28243.287109
3433.295898	28041.386719
3432.039063	28192.955078
3430.782227	28033.064453
3429.524414	27841.308594
3428.265625	28048.677734
3427.007813	28102.355469
3425.749023	28044.324219
3424.490234	28155.794922
3423.231445	28125.679688
3421.971680	28093.580078
3420.711914	28376.318359
3419.452148	27959.689453
3418.192383	27696.599609
3416.931641	28007.109375
3415.670898	28229.880859
3414.409180	28040.541016
3413.148438	27950.779297
3411.886719	27934.666016
3410.625000	28165.201172
3409.362305	27864.666016
3408.099609	28222.353516
3406.836914	28080.953125
3405.574219	27985.320313
3404.311523	27778.462891
3403.047852	27736.566406
3401.783203	27942.933594
3400.519531	27805.707031
3399.254883	27738.017578
3397.990234	27886.683594
3396.725586	27840.826172
3395.459961	27931.867188
3394.194336	27981.214844
3392.928711	27867.937500
3391.663086	27778.496094
3390.396484	27615.757813
3389.129883	27908.855469
3387.862305	27736.248047
3386.595703	27708.304688
3385.328125	27630.865234
3384.060547	27626.710938
3382.791992	27780.908203
3381.523438	27828.167969
3380.254883	27865.513672
3378.986328	27979.982422
3377.716797	27916.410156
3376.447266	27848.910156
3375.177734	27741.900391
3373.908203	27605.289063
3372.637695	27871.816406
3371.367188	27429.039063
3370.095703	27622.406250
3368.825195	27606.378906
3367.553711	27803.562500
3366.282227	27641.445313
3365.009766	27741.837891
3363.737305	27638.984375
3362.464844	27910.921875
3361.192383	27638.484375
3359.918945	27604.714844
3358.645508	27695.132813
3357.372070	27755.947266
3356.097656	27964.494141
3354.823242	27761.273438
3353.548828	27644.789063
3352.274414	27697.673828
3350.999023	27589.123047
3349.723633	27494.392578
3348.447266	27622.033203
3347.171875	27842.064453
3345.895508	27965.628906
3344.619141	27644.773438
3343.341797	28073.013672
3342.064453	27854.468750
3340.787109	27920.927734
3339.509766	27830.197266
3338.231445	27476.328125
3336.953125	27935.527344
3335.674805	27835.029297
3334.395508	27950.468750
3333.117188	27677.328125
3331.836914	27935.955078
3330.557617	28014.019531
3329.277344	27448.863281
3327.997070	27738.726563
3326.716797	27785.412109
3325.435547	27671.384766
3324.154297	27976.666016
3322.873047	27813.673828
3321.591797	27658.585938
3320.309570	27699.347656
3319.027344	27751.832031
3317.744141	27708.398438
3316.461914	27862.589844
3315.178711	27596.154297
3313.894531	27889.144531
3312.611328	28160.490234
3311.327148	27784.693359
3310.042969	28053.980469
3308.757813	27774.109375
3307.472656	27736.585938
3306.187500	27745.947266
3304.902344	28102.851563
3303.616211	27920.814453
3302.330078	28094.056641
3301.043945	27779.416016
3299.757813	27993.572266
3298.470703	27862.419922
3297.183594	27863.916016
3295.895508	27726.998047
3294.607422	28067.646484
3293.319336	28094.417969
3292.031250	28353.000000
3290.742188	28070.005859
3289.454102	28071.435547
3288.164063	28018.349609
3286.875000	27827.093750
3285.584961	28174.941406
3284.294922	28244.423828
3283.003906	27852.898438
3281.713867	27924.361328
3280.422852	28112.439453
3279.130859	28504.515625
3277.839844	28360.070313
3276.547852	28252.599609
3275.254883	28286.970703
3273.962891	28525.224609
3272.669922	28210.041016
3271.376953	28341.441406
3270.083008	28092.416016
3268.790039	28243.177734
3267.496094	28407.447266
3266.201172	28540.609375
3264.907227	28061.029297
3263.612305	28205.833984
3262.316406	28400.957031
3261.021484	28431.296875
3259.725586	28312.464844
3258.429688	28273.085938
3257.132813	28193.062500
3255.836914	28219.539063
3254.540039	28373.730469
3253.242188	28496.892578
3251.945313	28389.794922
3250.647461	28305.951172
3249.348633	28318.820313
3248.050781	28275.621094
3246.751953	27998.585938
3245.453125	28208.593750
3244.153320	28138.394531
3242.853516	28400.416016
3241.553711	28391.988281
3240.253906	28317.923828
3238.953125	28473.564453
3237.652344	28337.763672
3236.351563	28261.824219
3235.049805	28388.429688
3233.748047	28152.462891
3232.446289	28334.937500
3231.143555	28066.318359
3229.840820	28333.505859
3228.538086	28409.845703
3227.235352	28245.392578
3225.931641	28412.214844
3224.627930	28269.007813
3223.324219	28495.406250
3222.019531	28694.759766
3220.714844	28634.300781
3219.410156	28264.201172
3218.104492	28503.841797
3216.798828	28314.652344
3215.493164	28260.089844
3214.186523	28495.712891
3212.879883	28500.683594
3211.573242	28457.632813
3210.266602	28347.384766
3208.958984	28152.712891
3207.651367	28428.382813
3206.343750	28521.621094
3205.035156	28323.197266
3203.726563	28349.277344
3202.417969	28321.646484
3201.108398	28455.072266
3199.798828	28243.416016
3198.489258	28148.750000
3197.178711	28190.152344
3195.868164	28237.277344
3194.557617	28479.707031
3193.247070	28490.361328
3191.935547	28665.619141
3190.624023	28347.070313
3189.311523	28141.544922
3188.000000	28467.861328
3186.687500	28421.121094
3185.374023	28307.482422
3184.061523	28218.742188
3182.748047	28405.224609
3181.433594	28308.853516
3180.120117	28250.726563
3178.805664	28165.888672
3177.491211	28109.724609
3176.175781	28065.037109
3174.860352	28075.708984
3173.544922	28132.162109
3172.229492	27923.447266
3170.913086	27875.017578
3169.596680	28133.568359
3168.280273	28212.816406
3166.962891	28261.535156
3165.645508	28089.218750
3164.327148	28204.603516
3163.009766	28190.437500
3161.691406	28155.330078
3160.373047	28026.964844
3159.053711	28195.531250
3157.734375	28150.925781
3156.415039	28197.640625
3155.094727	27945.759766
3153.774414	27944.962891
3152.454102	28183.669922
3151.133789	27867.345703
3149.812500	27942.556641
3148.491211	28088.009766
3147.168945	27986.515625
3145.847656	27913.544922
3144.525391	28060.792969
3143.202148	27818.933594
3141.879883	28197.597656
3140.556641	28270.691406
3139.232422	28030.839844
3137.909180	27415.693359
3136.584961	27788.402344
3135.259766	27848.244141
3133.935547	27900.476563
3132.610352	28134.523438
3131.285156	27809.802734
3129.958984	27538.242188
3128.632813	27709.736328
3127.306641	27907.642578
3125.980469	27814.085938
3124.653320	28255.876953
3123.326172	28084.742188
3121.998047	27979.857422
3120.670898	27992.212891
3119.341797	28019.675781
3118.013672	28045.236328
3116.684570	27898.890625
3115.355469	28139.742188
3114.026367	27800.861328
3112.696289	27983.101563
3111.366211	28127.511719
3110.036133	27973.757813
3108.705078	27906.837891
3107.374023	27856.919922
3106.042969	28127.531250
3104.711914	27964.482422
3103.379883	28206.667969
3102.046875	28250.914063
3100.714844	28240.513672
3099.381836	28307.322266
3098.048828	28394.806641
3096.714844	28222.496094
3095.380859	28089.781250
3094.046875	27806.617188
3092.712891	27873.433594
3091.377930	27990.990234
3090.042969	27975.005859
3088.707031	28235.324219
3087.372070	27990.027344
3086.036133	27968.408203
3084.699219	27991.875000
3083.362305	28088.562500
3082.025391	28076.312500
3080.688477	28238.621094
3079.350586	28109.994141
3078.012695	28390.404297
3076.674805	28346.197266
3075.335938	27985.105469
3073.997070	28090.986328
3072.658203	28074.986328
3071.318359	28308.212891
3069.978516	28318.392578
3068.638672	28283.611328
3067.298828	28209.521484
3065.958008	28478.052734
3064.616211	28287.904297
3063.275391	28423.429688
3061.933594	28375.554688
3060.591797	28308.996094
3059.249023	28335.958984
3057.906250	28377.861328
3056.563477	27898.294922
3055.219727	28424.226563
3053.876953	28273.656250
3052.532227	28367.814453
3051.188477	28418.980469
3049.843750	28178.904297
3048.499023	28308.470703
3047.153320	28281.238281
3045.808594	28365.941406
3044.461914	28355.486328
3043.116211	28259.263672
3041.769531	28515.402344
3040.422852	28514.230469
3039.076172	28375.173828
3037.728516	28407.558594
3036.380859	28305.835938
3035.032227	28401.519531
3033.683594	28253.304688
3032.334961	28254.037109
3030.986328	28269.652344
3029.636719	27827.662109
3028.287109	28315.726563
3026.937500	28212.314453
3025.586914	27900.759766
3024.236328	28026.068359
3022.885742	28260.931641
3021.534180	28189.195313
3020.182617	28280.910156
3018.830078	28361.437500
3017.478516	28143.082031
3016.125977	27952.664063
3014.772461	28035.058594
3013.419922	27787.251953
3012.066406	27947.525391
3010.711914	28374.687500
3009.358398	28199.253906
3008.003906	28314.832031
3006.648438	28137.636719
3005.292969	27882.732422
3003.937500	27948.296875
3002.582031	28104.541016
3001.225586	27964.570313
2999.869141	27839.466797
2998.512695	27929.017578
2997.155273	28109.148438
2995.797852	27904.580078
2994.440430	27770.355469
2993.082031	27767.414063
2991.723633	27801.425781
2990.365234	27656.228516
2989.005859	28076.244141
2987.646484	27792.562500
2986.287109	27629.001953
2984.926758	27686.984375
2983.566406	27669.287109
2982.206055	27815.769531
2980.844727	27796.199219
2979.483398	28211.767578
2978.122070	27727.582031
2976.759766	27980.787109
2975.397461	27834.054688
2974.035156	27807.121094
2972.671875	28015.917969
2971.308594	27896.888672
2969.945313	27733.738281
2968.581055	27743.646484
2967.216797	28042.398438
2965.852539	27734.009766
2964.487305	27789.875000
2963.122070	27772.171875
2961.756836	27745.283203
2960.390625	27494.216797
2959.024414	27579.468750
2957.658203	27846.513672
2956.291016	27837.982422
2954.923828	27680.751953
2953.556641	27659.412109
2952.188477	27704.138672
2950.820313	27706.646484
2949.452148	27976.923828
2948.083008	27625.468750
2946.713867	27972.625000
2945.343750	27973.220703
2943.974609	27960.988281
2942.604492	27723.437500
2941.233398	28072.054688
2939.862305	28101.910156
2938.491211	28060.357422
2937.120117	28044.443359
2935.748047	28240.773438
2934.375977	28182.744141
2933.003906	28166.802734
2931.630859	28030.195313
2930.257813	28281.166016
2928.883789	28029.460938
2927.509766	28172.509766
2926.135742	28006.796875
2924.761719	28023.771484
2923.386719	27867.296875
2922.011719	27931.750000
2920.635742	27994.341797
2919.260742	28259.406250
2917.883789	28422.201172
2916.507813	28249.390625
2915.130859	28300.896484
2913.753906	28104.501953
2912.375977	28112.279297
2910.998047	28205.671875
2909.620117	28248.019531
2908.242188	28124.648438
2906.863281	28217.960938
2905.483398	27983.632813
2904.104492	28182.458984
2902.724609	28141.068359
2901.344727	28234.275391
2899.963867	28271.068359
2898.583008	28160.603516
2897.202148	28293.708984
2895.820313	28348.621094
2894.438477	28454.365234
2893.056641	28273.126953
2891.673828	28473.238281
2890.291016	28275.742188
2888.908203	28339.650391
2887.524414	28309.185547
2886.140625	28594.330078
2884.755859	28239.222656
2883.372070	28464.414063
2881.987305	28366.875000
2880.601563	28334.613281
2879.215820	28438.232422
2877.830078	28335.328125
2876.444336	28304.900391
2875.057617	28531.539063
2873.670898	28289.322266
2872.283203	28210.064453
2870.895508	28358.767578
2869.507813	28275.908203
2868.120117	28033.976563
2866.731445	27965.691406
2865.342773	28356.460938
2863.953125	28255.603516
2862.563477	28568.435547
2861.173828	28203.914063
2859.783203	28112.185547
2858.392578	28244.316406
2857.001953	28462.996094
2855.610352	28308.119141
2854.218750	28164.136719
2852.827148	28305.130859
2851.434570	28471.291016
2850.041992	28186.783203
2848.649414	28048.363281
2847.255859	27964.052734
2845.862305	28079.693359
2844.467773	27935.992188
2843.073242	27997.574219
2841.678711	28003.332031
2840.284180	28187.208984
2838.888672	27883.515625
2837.493164	27885.691406
2836.096680	27848.308594
2834.700195	28030.236328
2833.303711	28098.855469
2831.906250	27632.046875
2830.509766	27936.025391
2829.111328	27577.222656
2827.713867	27667.419922
2826.315430	27651.671875
2824.916016	27892.531250
2823.517578	27865.966797
2822.118164	27868.107422
2820.717773	27769.832031
2819.317383	27775.576172
2817.916992	27738.300781
2816.516602	27853.341797
2815.115234	27289.404297
2813.713867	27682.083984
2812.311523	27671.714844
2810.909180	27468.023438
2809.506836	27599.082031
2808.104492	27601.253906
2806.701172	27592.691406
2805.296875	27568.035156
2803.893555	27296.666016
2802.489258	27567.009766
2801.084961	27558.451172
2799.679688	27771.421875
2798.274414	27644.931641
2796.868164	27402.433594
2795.462891	27211.822266
2794.056641	27435.365234
2792.649414	27810.464844
2791.242188	27536.042969
2789.834961	27511.435547
2788.427734	27321.017578
2787.019531	27611.982422
2785.611328	27601.623047
2784.202148	27765.871094
2782.792969	27374.285156
2781.383789	27477.955078
2779.973633	27542.402344
2778.563477	27535.617188
2777.153320	27738.814453
2775.742188	27892.095703
2774.331055	27744.708984
2772.918945	27679.189453
2771.507813	27631.478516
2770.095703	27571.345703
2768.682617	27674.710938
2767.269531	27699.859375
2765.856445	27479.906250
2764.442383	27774.970703
2763.028320	27642.082031
2761.614258	27287.421875
2760.200195	27692.308594
2758.785156	27561.302734
2757.369141	27852.421875
2755.953125	28065.382813
2754.537109	27820.937500
2753.121094	27968.230469
2751.704102	27676.087891
2750.287109	27846.365234
2748.869141	27860.728516
2747.452148	27613.078125
2746.033203	27705.361328
2744.615234	27564.033203
2743.196289	27817.253906
2741.777344	27713.099609
2740.357422	27743.371094
2738.937500	27778.927734
2737.516602	27711.964844
2736.096680	27934.785156
2734.675781	27613.457031
2733.253906	27928.013672
2731.832031	27647.445313
2730.410156	28039.494141
2728.988281	27866.671875
2727.565430	27861.529297
2726.141602	28013.357422
2724.718750	27946.458984
2723.294922	27847.859375
2721.870117	27948.460938
2720.446289	27567.986328
2719.021484	27636.892578
2717.595703	27895.960938
2716.169922	27786.917969
2714.744141	27947.242188
2713.318359	27572.505859
2711.891602	27722.242188
2710.463867	27228.134766
2709.037109	27711.988281
2707.609375	27451.943359
2706.181641	27692.945313
2704.752930	27339.900391
2703.324219	27842.558594
2701.894531	27823.341797
2700.464844	27949.869141
2699.035156	27676.091797
2697.605469	27727.123047
2696.174805	27506.167969
2694.744141	27741.392578
2693.312500	27815.158203
2691.880859	27846.806641
2690.449219	27405.177734
2689.016602	27535.039063
2687.583984	27859.296875
2686.150391	27820.832031
2684.717773	27433.919922
2683.283203	27469.099609
2681.849609	27689.779297
2680.415039	27628.636719
2678.980469	27425.824219
2677.544922	27586.880859
2676.109375	27497.824219
2674.673828	27817.843750
2673.237305	27599.449219
2671.800781	27641.482422
2670.363281	27452.929688
2668.925781	27727.226563
2667.488281	27783.156250
2666.050781	27306.708984
2664.612305	27659.353516
2663.172852	27467.527344
2661.734375	27514.732422
2660.294922	27316.058594
2658.854492	27378.962891
2657.414063	27522.000000
2655.973633	27454.138672
2654.533203	27260.892578
2653.091797	27262.785156
2651.650391	27271.638672
2650.208008	27322.257813
2648.765625	27520.763672
2647.323242	27440.810547
2645.879883	27366.113281
2644.436523	27361.003906
2642.992188	27540.167969
2641.547852	27500.251953
2640.103516	27465.566406
2638.659180	27641.085938
2637.213867	27606.376953
2635.767578	27661.968750
2634.321289	27446.740234
2632.875000	27476.306641
2631.428711	27570.048828
2629.981445	27323.775391
2628.534180	27367.214844
2627.085938	27306.611328
2625.637695	27405.490234
2624.189453	27608.283203
2622.740234	27575.373047
2621.291016	27511.302734
2619.841797	27791.824219
2618.391602	27554.623047
2616.941406	27620.392578
2615.490234	27879.904297
2614.040039	27445.662109
2612.587891	27367.869141
2611.136719	27411.132813
2609.684570	27540.794922
2608.231445	27312.693359
2606.778320	27359.384766
2605.325195	27554.583984
2603.872070	27431.970703
2602.417969	27376.740234
2600.962891	27428.535156
2599.508789	27483.753906
2598.053711	27406.119141
2596.597656	27673.423828
2595.142578	27594.050781
2593.685547	27480.242188
2592.229492	27550.873047
2590.772461	27251.066406
2589.315430	27521.505859
2587.857422	27617.892578
2586.399414	27449.119141
2584.941406	27154.791016
2583.482422	27345.824219
2582.023438	27380.220703
2580.563477	27120.519531
2579.103516	27419.724609
2577.643555	27570.953125
2576.182617	27627.585938
2574.721680	27493.488281
2573.260742	27278.728516
2571.798828	27338.820313
2570.336914	27270.123047
2568.874023	27210.041016
2567.411133	27498.302734
2565.948242	27251.207031
2564.484375	27254.619141
2563.020508	27206.591797
2561.556641	27470.556641
2560.091797	27247.697266
2558.626953	27321.339844
2557.161133	27091.773438
2555.695313	27480.494141
2554.229492	27215.046875
2552.762695	26966.847656
2551.295898	27173.919922
2549.829102	26859.134766
2548.361328	27074.675781
2546.892578	27185.808594
2545.424805	26937.914063
2543.956055	27098.578125
2542.486328	27018.259766
2541.017578	27134.408203
2539.547852	27048.994141
2538.077148	26883.380859
2536.606445	27113.820313
2535.135742	27313.425781
2533.664063	26922.681641
2532.192383	27013.080078
2530.720703	26929.513672
2529.248047	26898.830078
2527.775391	27091.408203
2526.301758	26752.314453
2524.828125	26856.253906
2523.354492	26970.355469
2521.879883	27024.808594
2520.405273	27242.628906
2518.929688	26924.332031
2517.455078	26886.884766
2515.978516	27021.230469
2514.502930	26795.039063
2513.026367	26856.238281
2511.548828	26956.492188
2510.071289	26890.189453
2508.593750	26808.628906
2507.116211	26944.470703
2505.637695	26997.052734
2504.158203	26747.490234
2502.679688	26929.050781
2501.200195	26796.679688
2499.719727	27064.625000
2498.239258	26947.541016
2496.758789	26894.927734
2495.277344	26869.455078
2493.795898	26608.488281
2492.314453	26811.763672
2490.832031	26806.642578
2489.349609	27002.988281
2487.867188	27087.521484
2486.383789	27019.718750
2484.899414	26835.220703
2483.415039	26660.962891
2481.930664	26791.138672
2480.446289	26897.582031
2478.960938	26818.070313
2477.475586	26826.453125
2475.989258	26926.039063
2474.502930	26849.951172
2473.016602	26839.740234
2471.529297	27015.191406
2470.041992	26859.824219
2468.553711	27018.306641
2467.065430	27016.484375
2465.577148	26771.865234
2464.087891	26805.500000
2462.598633	26567.792969
2461.108398	27041.195313
2459.618164	27110.099609
2458.127930	26933.111328
2456.636719	26926.246094
2455.145508	26608.009766
2453.654297	26920.931641
2452.162109	27215.185547
2450.669922	26727.250000
2449.176758	27014.671875
2447.683594	26943.904297
2446.189453	26854.685547
2444.696289	26807.509766
2443.201172	26871.214844
2441.707031	26894.582031
2440.211914	26886.037109
2438.715820	26991.625000
2437.220703	26830.361328
2435.723633	26734.601563
2434.227539	26655.658203
2432.730469	26672.322266
2431.233398	26898.505859
2429.735352	26685.507813
2428.237305	26827.798828
2426.738281	26685.271484
2425.239258	26358.617188
2423.740234	26430.560547
2422.240234	26514.181641
2420.740234	26430.433594
2419.240234	26629.429688
2417.739258	26381.794922
2416.238281	26642.558594
2414.736328	26659.144531
2413.234375	26822.775391
2411.731445	26441.681641
2410.229492	26369.775391
2408.725586	26540.025391
2407.222656	26529.892578
2405.718750	26488.052734
2404.213867	26382.828125
2402.708984	26729.708984
2401.204102	26504.396484
2399.699219	26255.857422
2398.193359	26659.169922
2396.686523	26524.025391
2395.179688	26555.546875
2393.672852	26473.791016
2392.166016	26575.238281
2390.658203	26448.568359
2389.149414	26406.839844
2387.641602	26491.578125
2386.131836	26330.087891
2384.623047	26549.501953
2383.113281	26524.404297
2381.603516	26344.738281
2380.092773	26399.460938
2378.582031	26400.994141
2377.070313	26465.634766
2375.558594	26247.968750
2374.046875	26257.832031
2372.534180	26299.218750
2371.021484	26053.548828
2369.507813	26292.349609
2367.994141	26219.265625
2366.480469	26424.738281
2364.965820	26320.162109
2363.451172	26316.714844
2361.936523	26242.033203
2360.420898	26284.974609
2358.904297	26286.498047
2357.388672	26220.150391
2355.872070	26430.201172
2354.354492	26037.916016
2352.836914	26254.515625
2351.319336	26120.437500
2349.800781	26067.429688
2348.282227	26189.640625
2346.763672	26376.226563
2345.244141	26496.638672
2343.723633	26238.794922
2342.204102	26167.650391
2340.682617	26098.193359
2339.162109	26162.433594
2337.640625	26003.919922
2336.119141	25819.093750
2334.596680	25937.765625
2333.074219	25967.353516
2331.550781	26029.884766
2330.027344	26103.916016
2328.503906	26069.189453
2326.979492	26212.332031
2325.455078	26259.910156
2323.930664	26111.589844
2322.405273	25859.673828
2320.878906	25948.425781
2319.353516	26239.427734
2317.826172	25900.519531
2316.299805	25874.115234
2314.772461	25915.103516
2313.245117	25974.138672
2311.716797	25491.093750
2310.188477	25847.433594
2308.659180	26197.019531
2307.129883	25824.250000
2305.600586	25984.957031
2304.070313	25909.351563
2302.540039	25943.664063
2301.008789	25786.123047
2299.477539	25799.136719
2297.946289	25807.224609
2296.414063	25728.474609
2294.881836	25847.949219
2293.348633	25666.062500
2291.815430	25886.986328
2290.282227	25620.072266
2288.748047	25752.531250
2287.213867	25729.519531
2285.678711	25780.109375
2284.143555	25856.828125
2282.607422	25776.591797
2281.072266	25827.123047
2279.535156	25702.820313
2277.999023	25642.275391
2276.460938	25537.673828
2274.923828	25664.929688
2273.385742	25563.634766
2271.847656	25535.812500
2270.308594	25684.166016
2268.769531	25587.830078
2267.229492	25308.947266
2265.689453	25478.425781
2264.149414	25717.880859
2262.608398	25437.544922
2261.067383	25548.220703
2259.526367	25564.402344
2257.984375	25572.433594
2256.441406	25691.117188
2254.898438	25562.443359
2253.355469	25370.400391
2251.812500	25406.107422
2250.268555	25579.974609
2248.723633	25547.343750
2247.178711	25621.964844
2245.633789	25332.677734
2244.087891	25449.537109
2242.541992	25688.099609
2240.996094	25480.169922
2239.449219	25605.003906
2237.902344	25231.724609
2236.354492	25299.789063
2234.806641	25456.996094
2233.257813	25696.792969
2231.708984	25560.476563
2230.160156	25578.148438
2228.610352	25445.169922
2227.060547	25359.218750
2225.509766	25331.591797
2223.958984	25621.208984
2222.408203	25496.437500
2220.856445	25342.609375
2219.304688	25437.917969
2217.751953	25426.462891
2216.199219	25505.531250
2214.645508	25519.916016
2213.092773	25674.847656
2211.538086	25474.359375
2209.983398	25461.283203
2208.428711	25214.134766
2206.874023	25738.558594
2205.318359	25589.882813
2203.761719	25531.615234
2202.206055	25483.050781
2200.648438	25245.878906
2199.091797	25416.615234
2197.534180	25535.697266
2195.975586	25359.906250
2194.416992	25493.429688
2192.858398	25539.935547
2191.298828	25510.757813
2189.739258	25732.642578
2188.179688	25669.636719
2186.619141	25506.939453
2185.057617	25509.951172
2183.497070	25622.277344
2181.934570	25464.533203
2180.373047	25332.576172
2178.810547	25541.236328
2177.247070	25709.636719
2175.683594	25882.763672
2174.120117	25705.882813
2172.555664	25553.162109
2170.991211	25556.132813
2169.426758	25419.566406
2167.861328	25703.167969
2166.295898	25510.521484
2164.729492	25457.400391
2163.163086	25461.984375
2161.595703	25764.492188
2160.028320	25527.183594
2158.459961	25565.357422
2156.892578	25390.640625
2155.323242	25545.632813
2153.754883	25300.619141
2152.184570	25306.818359
2150.615234	25428.128906
2149.044922	25408.710938
2147.473633	25416.466797
2145.903320	25374.691406
2144.331055	25438.347656
2142.759766	25578.615234
2141.187500	25447.427734
