#Wave		#Intensity
3550.258789	30594.232422
3549.027344	30510.691406
3547.794922	30498.070313
3546.562500	30497.671875
3545.330078	30354.730469
3544.096680	30217.953125
3542.863281	30590.082031
3541.629883	30709.712891
3540.396484	30568.869141
3539.162109	30751.501953
3537.928711	30633.072266
3536.693359	30713.947266
3535.458984	30504.093750
3534.223633	30643.890625
3532.989258	30747.050781
3531.752930	30480.433594
3530.517578	30536.863281
3529.281250	30729.316406
3528.044922	30724.757813
3526.808594	30367.019531
3525.571289	30587.785156
3524.333984	30548.757813
3523.096680	30757.212891
3521.859375	30493.050781
3520.621094	30496.636719
3519.382813	30634.007813
3518.144531	30832.117188
3516.906250	30815.355469
3515.666992	30514.980469
3514.427734	30567.150391
3513.188477	30459.322266
3511.948242	30643.068359
3510.708008	30844.947266
3509.467773	30484.164063
3508.227539	30548.406250
3506.986328	31134.490234
3505.745117	30953.855469
3504.503906	30474.052734
3503.262695	30358.318359
3502.020508	30705.443359
3500.778320	30696.792969
3499.535156	30674.000000
3498.292969	30790.576172
3497.049805	30590.070313
3495.806641	30833.792969
3494.563477	30978.503906
3493.319336	30622.693359
3492.075195	30747.205078
3490.831055	30877.712891
3489.585938	31088.826172
3488.340820	30773.609375
3487.095703	31077.373047
3485.850586	30905.376953
3484.604492	30808.005859
3483.358398	31117.597656
3482.112305	30955.765625
3480.866211	30900.720703
3479.619141	31133.580078
3478.372070	31201.291016
3477.125000	30743.761719
3475.876953	31133.416016
3474.629883	31138.718750
3473.380859	30814.212891
3472.132813	31169.410156
3470.883789	31317.406250
3469.634766	31017.181641
3468.385742	31052.623047
3467.136719	31252.767578
3465.886719	31023.033203
3464.636719	31136.750000
3463.386719	30929.216797
3462.135742	30808.072266
3460.884766	30959.875000
3459.633789	30977.195313
3458.381836	30846.082031
3457.130859	31202.306641
3455.878906	31331.824219
3454.625977	31092.468750
3453.374023	31239.984375
3452.121094	31237.164063
3450.868164	31054.062500
3449.614258	31299.607422
3448.361328	31300.771484
3447.107422	31219.857422
3445.853516	31541.246094
3444.598633	31342.253906
3443.343750	31269.375000
3442.088867	31148.523438
3440.833984	31041.718750
3439.578125	31364.775391
3438.322266	31223.984375
3437.066406	31169.177734
3435.809570	31182.318359
3434.553711	31503.050781
3433.295898	31230.539063
3432.039063	31002.068359
3430.782227	31188.878906
3429.524414	31014.392578
3428.265625	31215.078125
3427.007813	31299.976563
3425.749023	31013.886719
3424.490234	31048.937500
3423.231445	30962.367188
3421.971680	31097.056641
3420.711914	31165.929688
3419.452148	31206.876953
3418.192383	31124.318359
3416.931641	31316.587891
3415.670898	31174.308594
3414.409180	31135.589844
3413.148438	30842.169922
3411.886719	31203.425781
3410.625000	31242.289063
3409.362305	30905.281250
3408.099609	30979.972656
3406.836914	31193.771484
3405.574219	31103.412109
3404.311523	30905.798828
3403.047852	31107.542969
3401.783203	30935.828125
3400.519531	31206.962891
3399.254883	30991.621094
3397.990234	30933.160156
3396.725586	30823.132813
3395.459961	31107.925781
3394.194336	31162.519531
3392.928711	31157.597656
3391.663086	30795.830078
3390.396484	31022.882813
3389.129883	30770.285156
3387.862305	30904.123047
3386.595703	30990.359375
3385.328125	30967.638672
3384.060547	30622.210938
3382.791992	31264.656250
3381.523438	30980.656250
3380.254883	30540.476563
3378.986328	30949.085938
3377.716797	30995.601563
3376.447266	30883.916016
3375.177734	30722.859375
3373.908203	30779.265625
3372.637695	30778.341797
3371.367188	30423.812500
3370.095703	30549.361328
3368.825195	30807.148438
3367.553711	30835.818359
3366.282227	30856.576172
3365.009766	30626.720703
3363.737305	30621.863281
3362.464844	30496.691406
3361.192383	30558.902344
3359.918945	30603.339844
3358.645508	30978.890625
3357.372070	30504.939453
3356.097656	30708.931641
3354.823242	30895.103516
3353.548828	30661.730469
3352.274414	31013.205078
3350.999023	30775.964844
3349.723633	30664.779297
3348.447266	30777.935547
3347.171875	30979.558594
3345.895508	30874.291016
3344.619141	30820.187500
3343.341797	30834.906250
3342.064453	30965.570313
3340.787109	30762.140625
3339.509766	30623.626953
3338.231445	30597.119141
3336.953125	30708.070313
3335.674805	30691.363281
3334.395508	30933.736328
3333.117188	30981.732422
3331.836914	30621.652344
3330.557617	30912.900391
3329.277344	30390.234375
3327.997070	30922.533203
3326.716797	30729.378906
3325.435547	30730.306641
3324.154297	30752.781250
3322.873047	30687.101563
3321.591797	30958.269531
3320.309570	30951.300781
3319.027344	31038.285156
3317.744141	30909.962891
3316.461914	30869.738281
3315.178711	30817.791016
3313.894531	31061.164063
3312.611328	30874.283203
3311.327148	30965.056641
3310.042969	31120.279297
3308.757813	30980.392578
3307.472656	31076.931641
3306.187500	30724.236328
3304.902344	30945.744141
3303.616211	31333.076172
3302.330078	30990.312500
3301.043945	30915.013672
3299.757813	30982.154297
3298.470703	31115.570313
3297.183594	31194.328125
3295.895508	30885.105469
3294.607422	30991.156250
3293.319336	31212.123047
3292.031250	31150.505859
3290.742188	31388.859375
3289.454102	31574.523438
3288.164063	31152.699219
3286.875000	31058.050781
3285.584961	31066.574219
3284.294922	31306.603516
3283.003906	31132.228516
3281.713867	31391.572266
3280.422852	31425.273438
3279.130859	31390.925781
3277.839844	31236.107422
3276.547852	31229.011719
3275.254883	31324.861328
3273.962891	31517.761719
3272.669922	31283.441406
3271.376953	31524.781250
3270.083008	31164.417969
3268.790039	31357.166016
3267.496094	31578.917969
3266.201172	31373.919922
3264.907227	31176.767578
3263.612305	31190.988281
3262.316406	31288.533203
3261.021484	31378.279297
3259.725586	31547.400391
3258.429688	31342.669922
3257.132813	31099.304688
3255.836914	31279.978516
3254.540039	31319.289063
3253.242188	31468.865234
3251.945313	31426.861328
3250.647461	31655.630859
3249.348633	31194.015625
3248.050781	31654.701172
3246.751953	31659.062500
3245.453125	31435.414063
3244.153320	31482.316406
3242.853516	31550.439453
3241.553711	31512.326172
3240.253906	31178.867188
3238.953125	31438.072266
3237.652344	31581.380859
3236.351563	31466.117188
3235.049805	31713.496094
3233.748047	31474.839844
3232.446289	31708.601563
3231.143555	31560.634766
3229.840820	31695.990234
3228.538086	31540.380859
3227.235352	31914.501953
3225.931641	31358.380859
3224.627930	31670.759766
3223.324219	31467.167969
3222.019531	31898.673828
3220.714844	31652.792969
3219.410156	31310.849609
3218.104492	31572.865234
3216.798828	31415.652344
3215.493164	31468.011719
3214.186523	31368.537109
3212.879883	31288.314453
3211.573242	31398.279297
3210.266602	31273.914063
3208.958984	31426.062500
3207.651367	31470.648438
3206.343750	31549.751953
3205.035156	31488.763672
3203.726563	30911.835938
3202.417969	31466.580078
3201.108398	31618.451172
3199.798828	31678.246094
3198.489258	31766.753906
3197.178711	31376.248047
3195.868164	31386.244141
3194.557617	31798.380859
3193.247070	31557.462891
3191.935547	31557.830078
3190.624023	31642.394531
3189.311523	31466.718750
3188.000000	31208.871094
3186.687500	31419.662109
3185.374023	31420.042969
3184.061523	31374.546875
3182.748047	31256.447266
3181.433594	30983.644531
3180.120117	31364.228516
3178.805664	31570.849609
3177.491211	31187.417969
3176.175781	31493.234375
3174.860352	31409.603516
3173.544922	31272.583984
3172.229492	31255.796875
3170.913086	31267.619141
3169.596680	31027.763672
3168.280273	31255.021484
3166.962891	31299.220703
3165.645508	30964.251953
3164.327148	31033.255859
3163.009766	30970.822266
3161.691406	30997.898438
3160.373047	31276.218750
3159.053711	31253.726563
3157.734375	31021.955078
3156.415039	31126.968750
3155.094727	31066.482422
3153.774414	30969.894531
3152.454102	31128.060547
3151.133789	31020.095703
3149.812500	31157.271484
3148.491211	31070.236328
3147.168945	31171.248047
3145.847656	31249.423828
3144.525391	30860.607422
3143.202148	31084.939453
3141.879883	31263.626953
3140.556641	31005.953125
3139.232422	31412.138672
3137.909180	31027.513672
3136.584961	31448.662109
3135.259766	31035.773438
3133.935547	30979.267578
3132.610352	30964.457031
3131.285156	31190.156250
3129.958984	31203.695313
3128.632813	30963.580078
3127.306641	30907.140625
3125.980469	31104.250000
3124.653320	31246.408203
3123.326172	31068.900391
3121.998047	31110.789063
3120.670898	31060.033203
3119.341797	31374.025391
3118.013672	31376.126953
3116.684570	31161.001953
3115.355469	31189.583984
3114.026367	31102.980469
3112.696289	31118.341797
3111.366211	31143.128906
3110.036133	31116.960938
3108.705078	31260.562500
3107.374023	31123.111328
3106.042969	30993.261719
3104.711914	31163.169922
3103.379883	30893.914063
3102.046875	30848.980469
3100.714844	31080.951172
3099.381836	30830.726563
3098.048828	31194.375000
3096.714844	31322.566406
3095.380859	31110.087891
3094.046875	31102.773438
3092.712891	31118.031250
3091.377930	31110.710938
3090.042969	31189.875000
3088.707031	31404.328125
3087.372070	31716.392578
3086.036133	31507.904297
3084.699219	30989.595703
3083.362305	31145.667969
3082.025391	31305.417969
3080.688477	31307.425781
3079.350586	31371.353516
3078.012695	31382.718750
3076.674805	31350.935547
3075.335938	31478.554688
3073.997070	31411.136719
3072.658203	31572.412109
3071.318359	31201.433594
3069.978516	31383.283203
3068.638672	31053.722656
3067.298828	31520.136719
3065.958008	31668.074219
3064.616211	31656.847656
3063.275391	31694.275391
3061.933594	31645.626953
3060.591797	31570.814453
3059.249023	31520.341797
3057.906250	31266.121094
3056.563477	31516.644531
3055.219727	31658.669922
3053.876953	31436.343750
3052.532227	31290.695313
3051.188477	31623.119141
3049.843750	31374.814453
3048.499023	31477.496094
3047.153320	31302.107422
3045.808594	31343.189453
3044.461914	31352.544922
3043.116211	31574.451172
3041.769531	31783.201172
3040.422852	31395.470703
3039.076172	31456.960938
3037.728516	31563.126953
3036.380859	31713.933594
3035.032227	31494.146484
3033.683594	31596.494141
3032.334961	31579.683594
3030.986328	31652.185547
3029.636719	31544.216797
3028.287109	31302.398438
3026.937500	31581.281250
3025.586914	31599.794922
3024.236328	31774.398438
3022.885742	31213.177734
3021.534180	31376.638672
3020.182617	31553.019531
3018.830078	31120.345703
3017.478516	31194.607422
3016.125977	31346.769531
3014.772461	31407.949219
3013.419922	31103.693359
3012.066406	31413.380859
3010.711914	31535.669922
3009.358398	31255.685547
3008.003906	31281.587891
3006.648438	31072.191406
3005.292969	30968.464844
3003.937500	31166.619141
3002.582031	31173.990234
3001.225586	31444.177734
2999.869141	31049.933594
2998.512695	30974.070313
2997.155273	31173.818359
2995.797852	30794.703125
2994.440430	31025.820313
2993.082031	30981.439453
2991.723633	30911.208984
2990.365234	31158.748047
2989.005859	31127.287109
2987.646484	31175.234375
2986.287109	30937.025391
2984.926758	31204.607422
2983.566406	30721.099609
2982.206055	30606.753906
2980.844727	30981.179688
2979.483398	31200.544922
2978.122070	30863.111328
2976.759766	30905.474609
2975.397461	30995.716797
2974.035156	30910.921875
2972.671875	31107.925781
2971.308594	31036.025391
2969.945313	31059.873047
2968.581055	31330.298828
2967.216797	31048.648438
2965.852539	30963.943359
2964.487305	31350.039063
2963.122070	31075.931641
2961.756836	30965.537109
2960.390625	30967.287109
2959.024414	30801.851563
2957.658203	31148.935547
2956.291016	30840.298828
2954.923828	31106.423828
2953.556641	31297.166016
2952.188477	31027.240234
2950.820313	31208.730469
2949.452148	31430.480469
2948.083008	31138.703125
2946.713867	31105.542969
2945.343750	31083.392578
2943.974609	31235.318359
2942.604492	30978.660156
2941.233398	31139.689453
2939.862305	30872.185547
2938.491211	31133.835938
2937.120117	31078.748047
2935.748047	31118.826172
2934.375977	31166.197266
2933.003906	31379.962891
2931.630859	31482.091797
2930.257813	31118.056641
2928.883789	31275.015625
2927.509766	31174.289063
2926.135742	31385.951172
2924.761719	31562.810547
2923.386719	31107.892578
2922.011719	31063.873047
2920.635742	31284.466797
2919.260742	31231.296875
2917.883789	31506.455078
2916.507813	31518.896484
2915.130859	31345.376953
2913.753906	31006.082031
2912.375977	31281.015625
2910.998047	31470.191406
2909.620117	31258.591797
2908.242188	31735.367188
2906.863281	31698.556641
2905.483398	31456.107422
2904.104492	31202.853516
2902.724609	31379.019531
2901.344727	31733.324219
2899.963867	31485.632813
2898.583008	31570.705078
2897.202148	31581.224609
2895.820313	31660.775391
2894.438477	31582.255859
2893.056641	31498.322266
2891.673828	31712.175781
2890.291016	31771.638672
2888.908203	31573.386719
2887.524414	31788.871094
2886.140625	31489.132813
2884.755859	32079.888672
2883.372070	31328.804688
2881.987305	31571.312500
2880.601563	31675.984375
2879.215820	31662.851563
2877.830078	31553.728516
2876.444336	31513.464844
2875.057617	31674.154297
2873.670898	31414.884766
2872.283203	31662.363281
2870.895508	31316.386719
2869.507813	31607.167969
2868.120117	31335.496094
2866.731445	31617.085938
2865.342773	31262.406250
2863.953125	31435.466797
2862.563477	31523.541016
2861.173828	31427.373047
2859.783203	31522.623047
2858.392578	31560.062500
2857.001953	31620.939453
2855.610352	31634.878906
2854.218750	31556.820313
2852.827148	31280.441406
2851.434570	31746.939453
2850.041992	31499.482422
2848.649414	31398.093750
2847.255859	31568.773438
2845.862305	31218.871094
2844.467773	31409.310547
2843.073242	31209.023438
2841.678711	31525.343750
2840.284180	31186.576172
2838.888672	31299.474609
2837.493164	30935.744141
2836.096680	30867.050781
2834.700195	30900.845703
2833.303711	31312.001953
2831.906250	31094.136719
2830.509766	30948.222656
2829.111328	31046.597656
2827.713867	30974.367188
2826.315430	30923.708984
2824.916016	30957.408203
2823.517578	31043.113281
2822.118164	30664.246094
2820.717773	30999.214844
2819.317383	30927.083984
2817.916992	30713.398438
2816.516602	30987.179688
2815.115234	30522.789063
2813.713867	30794.685547
2812.311523	30801.455078
2810.909180	30779.580078
2809.506836	31006.464844
2808.104492	30930.867188
2806.701172	30824.896484
2805.296875	30870.976563
2803.893555	30892.001953
2802.489258	30698.527344
2801.084961	30719.578125
2799.679688	30906.761719
2798.274414	30808.078125
2796.868164	30625.513672
2795.462891	30785.794922
2794.056641	30688.988281
2792.649414	30915.187500
2791.242188	30640.001953
2789.834961	30637.816406
2788.427734	30895.947266
2787.019531	30884.779297
2785.611328	30798.763672
2784.202148	30696.753906
2782.792969	30644.664063
2781.383789	30922.048828
2779.973633	30642.035156
2778.563477	30572.189453
2777.153320	31048.681641
2775.742188	30845.333984
2774.331055	31019.150391
2772.918945	30863.916016
2771.507813	30875.861328
2770.095703	30976.664063
2768.682617	30794.890625
2767.269531	30806.833984
2765.856445	30822.322266
2764.442383	30800.511719
2763.028320	30844.388672
2761.614258	30835.000000
2760.200195	30784.804688
2758.785156	30768.333984
2757.369141	31204.076172
2755.953125	30893.197266
2754.537109	30743.765625
2753.121094	30911.601563
2751.704102	30764.003906
2750.287109	31061.041016
2748.869141	30805.458984
2747.452148	30939.464844
2746.033203	30744.208984
2744.615234	31014.402344
2743.196289	30907.666016
2741.777344	30924.777344
2740.357422	31143.441406
2738.937500	30943.056641
2737.516602	30769.275391
2736.096680	31192.753906
2734.675781	31144.404297
2733.253906	30965.394531
2731.832031	30857.089844
2730.410156	30882.980469
2728.988281	30871.796875
2727.565430	31035.269531
2726.141602	31258.625000
2724.718750	31041.041016
2723.294922	31128.537109
2721.870117	31327.019531
2720.446289	30963.328125
2719.021484	30975.021484
2717.595703	31256.156250
2716.169922	30817.035156
2714.744141	31304.009766
2713.318359	30914.361328
2711.891602	30621.667969
2710.463867	31006.302734
2709.037109	30996.841797
2707.609375	30997.929688
2706.181641	31107.988281
2704.752930	31000.097656
2703.324219	30948.472656
2701.894531	31228.810547
2700.464844	31064.773438
2699.035156	31035.982422
2697.605469	30796.603516
2696.174805	30952.115234
2694.744141	30886.527344
2693.312500	30859.550781
2691.880859	30906.220703
2690.449219	30511.156250
2689.016602	30720.853516
2687.583984	30863.869141
2686.150391	30723.066406
2684.717773	30823.980469
2683.283203	30825.052734
2681.849609	30756.115234
2680.415039	30965.419922
2678.980469	30931.460938
2677.544922	30684.152344
2676.109375	30596.072266
2674.673828	30777.226563
2673.237305	30902.365234
2671.800781	30599.388672
2670.363281	30818.826172
2668.925781	30648.732422
2667.488281	30845.343750
2666.050781	31071.527344
2664.612305	30767.125000
2663.172852	30792.587891
2661.734375	30713.390625
2660.294922	30752.796875
2658.854492	30340.687500
2657.414063	30547.468750
2655.973633	30470.140625
2654.533203	30655.875000
2653.091797	30771.855469
2651.650391	30833.804688
2650.208008	30608.517578
2648.765625	30487.750000
2647.323242	30549.712891
2645.879883	30495.109375
2644.436523	30588.332031
2642.992188	30971.822266
2641.547852	30642.541016
2640.103516	30700.898438
2638.659180	30555.978516
2637.213867	30704.626953
2635.767578	30849.726563
2634.321289	30960.035156
2632.875000	30537.521484
2631.428711	30552.423828
2629.981445	31004.412109
2628.534180	31124.960938
2627.085938	30850.177734
2625.637695	30925.636719
2624.189453	30961.199219
2622.740234	30941.308594
2621.291016	30902.371094
2619.841797	30797.656250
2618.391602	30822.816406
2616.941406	30820.273438
2615.490234	31151.650391
2614.040039	30801.341797
2612.587891	30966.537109
2611.136719	31007.169922
2609.684570	31116.914063
2608.231445	30746.218750
2606.778320	30646.933594
2605.325195	30967.386719
2603.872070	30899.169922
2602.417969	30741.218750
2600.962891	30693.796875
2599.508789	30454.876953
2598.053711	30773.234375
2596.597656	30720.656250
2595.142578	31212.916016
2593.685547	30829.306641
2592.229492	30945.621094
2590.772461	30512.304688
2589.315430	30778.478516
2587.857422	30763.841797
2586.399414	30749.210938
2584.941406	30546.988281
2583.482422	30725.123047
2582.023438	30794.791016
2580.563477	30762.957031
2579.103516	30431.974609
2577.643555	30601.351563
2576.182617	30695.027344
2574.721680	30809.269531
2573.260742	30545.580078
2571.798828	30642.625000
2570.336914	30641.763672
2568.874023	30304.507813
2567.411133	30729.259766
2565.948242	30397.291016
2564.484375	30681.169922
2563.020508	30666.568359
2561.556641	30490.843750
2560.091797	30556.835938
2558.626953	30526.847656
2557.161133	30472.892578
2555.695313	30105.593750
2554.229492	30618.425781
2552.762695	30526.826172
2551.295898	30284.693359
2549.829102	30389.943359
2548.361328	30295.041016
2546.892578	30468.623047
2545.424805	30372.033203
2543.956055	30234.474609
2542.486328	30433.556641
2541.017578	30564.214844
2539.547852	30517.207031
2538.077148	30531.679688
2536.606445	30196.253906
2535.135742	30519.642578
2533.664063	30518.742188
2532.192383	30485.435547
2530.720703	30527.162109
2529.248047	30616.595703
2527.775391	29818.101563
2526.301758	30243.302734
2524.828125	30111.298828
2523.354492	30296.097656
2521.879883	30181.166016
2520.405273	30323.294922
2518.929688	30060.371094
2517.455078	30224.568359
2515.978516	30322.351563
2514.502930	30178.638672
2513.026367	30293.375000
2511.548828	30185.425781
2510.071289	30114.904297
2508.593750	30159.919922
2507.116211	30259.251953
2505.637695	30207.431641
2504.158203	30077.560547
2502.679688	29951.144531
2501.200195	30315.058594
2499.719727	30363.328125
2498.239258	30109.761719
2496.758789	30354.687500
2495.277344	30053.794922
2493.795898	30203.726563
2492.314453	30307.845703
2490.832031	30146.042969
2489.349609	30155.310547
2487.867188	30232.273438
2486.383789	30363.341797
2484.899414	30210.136719
2483.415039	30170.320313
2481.930664	30162.646484
2480.446289	30200.615234
2478.960938	30105.054688
2477.475586	30110.910156
2475.989258	29832.992188
2474.502930	29974.001953
2473.016602	30204.416016
2471.529297	30198.414063
2470.041992	30342.589844
2468.553711	30294.376953
2467.065430	30065.726563
2465.577148	30211.503906
2464.087891	30166.722656
2462.598633	30132.074219
2461.108398	29979.501953
2459.618164	29943.228516
2458.127930	29979.378906
2456.636719	30060.964844
2455.145508	30425.263672
2453.654297	30112.943359
2452.162109	29852.929688
2450.669922	30109.359375
2449.176758	30036.105469
2447.683594	30068.785156
2446.189453	30185.472656
2444.696289	30172.730469
2443.201172	30044.093750
2441.707031	30039.783203
2440.211914	29914.599609
2438.715820	30079.833984
2437.220703	30073.832031
2435.723633	30005.761719
2434.227539	29593.919922
2432.730469	29956.902344
2431.233398	30091.728516
2429.735352	29857.806641
2428.237305	30185.251953
2426.738281	29896.146484
2425.239258	29759.566406
2423.740234	29701.736328
2422.240234	29960.255859
2420.740234	29924.148438
2419.240234	29767.617188
2417.739258	29642.937500
2416.238281	29787.501953
2414.736328	29886.859375
2413.234375	29922.660156
2411.731445	29672.755859
2410.229492	29700.238281
2408.725586	29704.324219
2407.222656	29603.234375
2405.718750	29477.158203
2404.213867	29668.166016
2402.708984	29980.845703
2401.204102	29718.011719
2399.699219	29548.675781
2398.193359	30024.484375
2396.686523	29726.839844
2395.179688	29752.541016
2393.672852	29698.281250
2392.166016	29845.525391
2390.658203	29544.888672
2389.149414	29722.048828
2387.641602	29847.533203
2386.131836	29442.326172
2384.623047	29499.630859
2383.113281	29425.562500
2381.603516	29705.562500
2380.092773	29757.761719
2378.582031	29638.820313
2377.070313	29725.882813
2375.558594	29711.611328
2374.046875	29440.044922
2372.534180	29445.765625
2371.021484	29504.570313
2369.507813	29394.154297
2367.994141	29738.162109
2366.480469	29796.839844
2364.965820	29678.136719
2363.451172	29405.390625
2361.936523	29510.482422
2360.420898	29451.558594
2358.904297	29662.546875
2357.388672	29520.843750
2355.872070	29205.445313
2354.354492	29479.195313
2352.836914	29397.185547
2351.319336	29381.357422
2349.800781	29352.310547
2348.282227	29349.718750
2346.763672	29295.902344
2345.244141	29478.335938
2343.723633	29455.886719
2342.204102	29608.460938
2340.682617	29128.759766
2339.162109	29520.613281
2337.640625	29189.654297
2336.119141	29315.738281
2334.596680	29339.519531
2333.074219	29048.421875
2331.550781	29217.285156
2330.027344	29348.164063
2328.503906	29418.023438
2326.979492	29176.597656
2325.455078	29053.832031
2323.930664	29003.550781
2322.405273	29534.167969
2320.878906	29238.660156
2319.353516	29469.603516
2317.826172	29101.910156
2316.299805	29179.886719
2314.772461	29303.835938
2313.245117	29383.357422
2311.716797	28881.365234
2310.188477	28964.232422
2308.659180	29056.906250
2307.129883	29134.757813
2305.600586	28766.246094
2304.070313	29287.048828
2302.540039	29169.607422
2301.008789	29121.087891
2299.477539	29034.888672
2297.946289	29097.859375
2296.414063	28919.958984
2294.881836	28889.560547
2293.348633	29119.535156
2291.815430	28933.572266
2290.282227	29001.384766
2288.748047	29033.160156
2287.213867	28821.183594
2285.678711	28689.447266
2284.143555	28837.353516
2282.607422	28807.015625
2281.072266	28887.812500
2279.535156	29143.367188
2277.999023	29099.900391
2276.460938	28862.144531
2274.923828	29239.931641
2273.385742	28685.650391
2271.847656	28606.439453
2270.308594	28798.041016
2268.769531	28921.048828
2267.229492	29047.250000
2265.689453	28976.167969
2264.149414	28799.203125
2262.608398	28817.814453
2261.067383	28854.328125
2259.526367	28793.126953
2257.984375	28764.509766
2256.441406	28815.646484
2254.898438	28873.261719
2253.355469	28764.939453
2251.812500	28829.037109
2250.268555	28618.359375
2248.723633	28801.099609
2247.178711	28766.013672
2245.633789	28737.443359
2244.087891	28975.216797
2242.541992	28552.074219
2240.996094	28731.333984
2239.449219	28540.517578
2237.902344	28458.492188
2236.354492	28519.230469
2234.806641	28591.287109
2233.257813	28911.322266
2231.708984	29012.404297
2230.160156	28611.169922
2228.610352	28756.005859
2227.060547	28801.984375
2225.509766	28585.666016
2223.958984	28466.570313
2222.408203	28531.996094
2220.856445	28840.039063
2219.304688	28525.271484
2217.751953	28854.169922
2216.199219	28728.677734
2214.645508	28598.402344
2213.092773	28726.683594
2211.538086	28892.044922
2209.983398	28472.781250
2208.428711	28894.794922
2206.874023	28543.525391
2205.318359	28760.382813
2203.761719	28759.361328
2202.206055	28643.839844
2200.648438	28831.474609
2199.091797	28330.767578
2197.534180	28453.923828
2195.975586	28652.730469
2194.416992	28564.753906
2192.858398	28674.865234
2191.298828	28904.035156
2189.739258	28690.527344
2188.179688	28581.705078
2186.619141	28756.025391
2185.057617	28700.302734
2183.497070	28448.476563
2181.934570	28857.339844
2180.373047	28436.886719
2178.810547	28492.132813
2177.247070	28598.738281
2175.683594	28562.394531
2174.120117	28901.662109
2172.555664	28584.431641
2170.991211	28719.767578
2169.426758	28516.617188
2167.861328	28719.242188
2166.295898	28719.775391
2164.729492	28415.812500
2163.163086	28789.730469
2161.595703	28719.759766
2160.028320	28553.742188
2158.459961	28749.621094
2156.892578	28676.505859
2155.323242	28541.023438
2153.754883	28471.195313
2152.184570	28396.603516
2150.615234	28520.306641
2149.044922	28447.333984
2147.473633	28866.585938
2145.903320	28672.138672
2144.331055	28498.552734
2142.759766	28567.763672
2141.187500	28644.917969
