#Wave		#Intensity
3550.258789	25382.109375
3549.027344	25145.750000
3547.794922	25079.269531
3546.562500	24984.300781
3545.330078	25207.029297
3544.096680	25122.248047
3542.863281	25407.945313
3541.629883	25093.199219
3540.396484	25523.224609
3539.162109	25389.619141
3537.928711	25526.544922
3536.693359	25334.025391
3535.458984	25271.683594
3534.223633	24991.904297
3532.989258	25171.457031
3531.752930	25302.171875
3530.517578	25162.701172
3529.281250	25295.388672
3528.044922	25562.007813
3526.808594	25191.169922
3525.571289	25266.935547
3524.333984	25470.486328
3523.096680	24996.447266
3521.859375	25155.345703
3520.621094	25549.373047
3519.382813	25357.384766
3518.144531	25534.335938
3516.906250	25543.027344
3515.666992	25434.214844
3514.427734	25521.910156
3513.188477	25463.767578
3511.948242	25373.253906
3510.708008	25373.861328
3509.467773	25151.863281
3508.227539	25464.085938
3506.986328	25579.962891
3505.745117	25240.759766
3504.503906	25334.386719
3503.262695	25425.951172
3502.020508	25642.773438
3500.778320	25766.554688
3499.535156	25583.214844
3498.292969	25773.599609
3497.049805	25770.048828
3495.806641	25602.968750
3494.563477	25542.935547
3493.319336	25426.419922
3492.075195	25541.970703
3490.831055	25893.466797
3489.585938	25672.078125
3488.340820	25577.802734
3487.095703	25664.986328
3485.850586	25659.423828
3484.604492	25710.279297
3483.358398	26022.990234
3482.112305	25703.154297
3480.866211	25693.548828
3479.619141	25873.183594
3478.372070	25533.451172
3477.125000	25503.757813
3475.876953	25739.638672
3474.629883	25715.943359
3473.380859	25672.142578
3472.132813	25861.582031
3470.883789	26215.765625
3469.634766	25771.953125
3468.385742	25736.205078
3467.136719	25802.917969
3465.886719	25576.378906
3464.636719	25731.439453
3463.386719	25721.818359
3462.135742	25812.548828
3460.884766	25828.992188
3459.633789	25851.443359
3458.381836	25831.763672
3457.130859	25844.173828
3455.878906	25820.486328
3454.625977	25622.423828
3453.374023	25791.171875
3452.121094	25943.816406
3450.868164	25835.986328
3449.614258	25836.345703
3448.361328	26129.025391
3447.107422	25899.109375
3445.853516	25945.476563
3444.598633	25981.816406
3443.343750	25900.107422
3442.088867	26048.437500
3440.833984	25916.755859
3439.578125	25763.136719
3438.322266	25897.398438
3437.066406	25919.695313
3435.809570	26063.847656
3434.553711	25716.572266
3433.295898	26066.386719
3432.039063	25938.875000
3430.782227	25759.519531
3429.524414	25903.533203
3428.265625	25921.783203
3427.007813	25760.492188
3425.749023	25698.986328
3424.490234	26080.150391
3423.231445	25671.734375
3421.971680	25909.232422
3420.711914	25760.062500
3419.452148	25752.398438
3418.192383	25772.617188
3416.931641	26109.435547
3415.670898	25880.708984
3414.409180	25767.521484
3413.148438	25682.240234
3411.886719	26040.656250
3410.625000	25845.947266
3409.362305	25786.548828
3408.099609	25884.242188
3406.836914	25727.457031
3405.574219	25765.494141
3404.311523	25580.980469
3403.047852	25845.482422
3401.783203	25784.158203
3400.519531	25619.611328
3399.254883	25665.556641
3397.990234	25626.136719
3396.725586	25570.859375
3395.459961	25186.291016
3394.194336	25482.183594
3392.928711	26130.900391
3391.663086	25746.455078
3390.396484	25825.974609
3389.129883	25517.064453
3387.862305	25675.839844
3386.595703	25513.666016
3385.328125	25668.406250
3384.060547	25413.248047
3382.791992	25486.781250
3381.523438	25562.257813
3380.254883	25742.558594
3378.986328	25450.015625
3377.716797	25833.953125
3376.447266	25428.812500
3375.177734	25154.316406
3373.908203	25415.523438
3372.637695	25666.730469
3371.367188	25583.974609
3370.095703	25590.126953
3368.825195	25432.384766
3367.553711	25736.656250
3366.282227	25918.419922
3365.009766	25693.611328
3363.737305	25425.498047
3362.464844	25447.439453
3361.192383	25546.273438
3359.918945	25530.712891
3358.645508	25461.939453
3357.372070	25655.285156
3356.097656	25545.134766
3354.823242	25442.910156
3353.548828	25315.128906
3352.274414	25531.947266
3350.999023	25620.720703
3349.723633	25384.738281
3348.447266	25650.576172
3347.171875	25664.505859
3345.895508	25660.726563
3344.619141	25491.785156
3343.341797	25454.623047
3342.064453	25558.976563
3340.787109	25399.988281
3339.509766	25461.083984
3338.231445	25382.707031
3336.953125	25335.777344
3335.674805	25744.310547
3334.395508	25583.480469
3333.117188	25562.039063
3331.836914	25595.535156
3330.557617	25632.935547
3329.277344	25484.029297
3327.997070	25811.582031
3326.716797	25656.816406
3325.435547	25678.480469
3324.154297	25357.281250
3322.873047	25592.498047
3321.591797	25739.482422
3320.309570	25471.339844
3319.027344	25630.025391
3317.744141	25802.333984
3316.461914	25506.957031
3315.178711	25782.882813
3313.894531	25890.496094
3312.611328	25657.857422
3311.327148	25706.802734
3310.042969	25912.068359
3308.757813	25640.496094
3307.472656	25589.779297
3306.187500	25566.423828
3304.902344	25791.048828
3303.616211	25865.257813
3302.330078	25882.833984
3301.043945	25804.789063
3299.757813	25605.828125
3298.470703	25722.908203
3297.183594	25847.730469
3295.895508	25960.798828
3294.607422	25771.716797
3293.319336	25732.755859
3292.031250	25919.792969
3290.742188	26225.550781
3289.454102	25925.576172
3288.164063	25906.072266
3286.875000	26022.820313
3285.584961	25939.082031
3284.294922	26007.126953
3283.003906	25660.845703
3281.713867	25962.267578
3280.422852	26041.916016
3279.130859	26012.679688
3277.839844	26296.318359
3276.547852	26298.115234
3275.254883	26169.769531
3273.962891	26227.904297
3272.669922	25994.785156
3271.376953	26184.921875
3270.083008	26202.251953
3268.790039	26149.726563
3267.496094	26110.798828
3266.201172	26364.720703
3264.907227	26329.632813
3263.612305	26218.962891
3262.316406	26061.826172
3261.021484	25982.261719
3259.725586	26071.255859
3258.429688	26235.736328
3257.132813	26227.816406
3255.836914	26227.640625
3254.540039	26165.531250
3253.242188	26161.494141
3251.945313	26161.324219
3250.647461	26199.830078
3249.348633	26085.566406
3248.050781	26110.537109
3246.751953	26108.435547
3245.453125	26258.976563
3244.153320	26193.085938
3242.853516	26254.693359
3241.553711	26403.158203
3240.253906	26323.757813
3238.953125	26298.433594
3237.652344	26464.144531
3236.351563	26215.011719
3235.049805	26357.517578
3233.748047	26154.794922
3232.446289	26260.613281
3231.143555	26252.666016
3229.840820	26090.566406
3228.538086	26236.773438
3227.235352	26354.021484
3225.931641	26182.371094
3224.627930	26003.097656
3223.324219	26430.187500
3222.019531	26539.574219
3220.714844	26073.681641
3219.410156	26279.263672
3218.104492	26063.623047
3216.798828	26117.228516
3215.493164	26257.298828
3214.186523	26145.570313
3212.879883	26185.664063
3211.573242	26171.955078
3210.266602	26108.322266
3208.958984	26150.306641
3207.651367	26019.523438
3206.343750	26145.939453
3205.035156	26272.292969
3203.726563	26114.708984
3202.417969	26166.218750
3201.108398	26382.580078
3199.798828	26453.166016
3198.489258	26362.744141
3197.178711	26126.755859
3195.868164	26197.343750
3194.557617	26426.839844
3193.247070	26156.529297
3191.935547	26489.283203
3190.624023	26268.833984
3189.311523	26010.216797
3188.000000	26103.669922
3186.687500	26617.789063
3185.374023	26223.519531
3184.061523	26089.386719
3182.748047	26140.679688
3181.433594	26149.914063
3180.120117	26000.601563
3178.805664	26080.515625
3177.491211	26282.582031
3176.175781	26167.693359
3174.860352	25852.474609
3173.544922	26042.998047
3172.229492	25932.048828
3170.913086	26248.324219
3169.596680	26116.400391
3168.280273	25976.912109
3166.962891	25965.166016
3165.645508	25949.613281
3164.327148	25996.923828
3163.009766	25882.335938
3161.691406	26266.630859
3160.373047	25975.003906
3159.053711	25953.742188
3157.734375	26231.197266
3156.415039	25799.015625
3155.094727	25977.482422
3153.774414	25806.027344
3152.454102	25786.716797
3151.133789	25930.845703
3149.812500	26088.205078
3148.491211	26019.447266
3147.168945	25872.857422
3145.847656	26011.125000
3144.525391	25997.470703
3143.202148	25991.412109
3141.879883	25862.029297
3140.556641	26058.960938
3139.232422	25967.544922
3137.909180	25931.150391
3136.584961	26014.189453
3135.259766	25558.984375
3133.935547	26161.197266
3132.610352	25846.333984
3131.285156	26217.154297
3129.958984	25584.341797
3128.632813	25998.580078
3127.306641	25969.794922
3125.980469	25831.285156
3124.653320	26150.589844
3123.326172	25936.451172
3121.998047	26053.277344
3120.670898	25920.535156
3119.341797	25933.367188
3118.013672	25757.255859
3116.684570	25909.890625
3115.355469	25917.041016
3114.026367	25995.929688
3112.696289	26020.037109
3111.366211	25853.533203
3110.036133	26132.361328
3108.705078	25828.207031
3107.374023	25974.898438
3106.042969	25906.587891
3104.711914	25725.212891
3103.379883	26067.800781
3102.046875	26270.806641
3100.714844	26091.349609
3099.381836	25874.308594
3098.048828	26018.845703
3096.714844	25850.857422
3095.380859	26157.162109
3094.046875	25725.824219
3092.712891	25979.341797
3091.377930	26067.255859
3090.042969	26000.962891
3088.707031	26139.572266
3087.372070	26264.960938
3086.036133	26350.835938
3084.699219	26376.560547
3083.362305	25900.890625
3082.025391	25984.904297
3080.688477	26217.154297
3079.350586	26152.802734
3078.012695	26332.367188
3076.674805	26084.203125
3075.335938	26089.302734
3073.997070	26216.253906
3072.658203	26106.982422
3071.318359	26082.082031
3069.978516	26355.062500
3068.638672	26112.847656
3067.298828	26250.865234
3065.958008	26310.185547
3064.616211	26090.603516
3063.275391	26181.740234
3061.933594	26499.191406
3060.591797	26607.013672
3059.249023	26058.460938
3057.906250	26285.974609
3056.563477	26120.892578
3055.219727	26544.476563
3053.876953	26420.501953
3052.532227	26266.703125
3051.188477	26456.541016
3049.843750	26373.736328
3048.499023	26317.097656
3047.153320	26611.269531
3045.808594	26590.039063
3044.461914	26475.564453
3043.116211	26204.519531
3041.769531	26248.636719
3040.422852	26132.453125
3039.076172	26079.671875
3037.728516	26356.626953
3036.380859	26292.636719
3035.032227	26485.619141
3033.683594	26216.863281
3032.334961	26294.380859
3030.986328	26697.460938
3029.636719	26291.187500
3028.287109	26599.226563
3026.937500	26479.488281
3025.586914	26133.029297
3024.236328	26504.064453
3022.885742	26259.943359
3021.534180	26149.675781
3020.182617	26308.730469
3018.830078	26367.447266
3017.478516	26195.970703
3016.125977	26312.210938
3014.772461	26263.271484
3013.419922	26212.498047
3012.066406	26052.337891
3010.711914	26331.634766
3009.358398	26499.587891
3008.003906	26322.787109
3006.648438	25910.783203
3005.292969	26249.107422
3003.937500	26403.945313
3002.582031	26060.708984
3001.225586	25926.779297
2999.869141	26320.277344
2998.512695	26077.195313
2997.155273	26004.382813
2995.797852	25667.183594
2994.440430	26086.238281
2993.082031	26076.306641
2991.723633	26016.488281
2990.365234	26115.564453
2989.005859	25980.037109
2987.646484	25837.185547
2986.287109	25976.837891
2984.926758	26227.152344
2983.566406	26021.601563
2982.206055	25888.089844
2980.844727	25959.347656
2979.483398	26316.355469
2978.122070	26278.714844
2976.759766	26239.246094
2975.397461	25980.539063
2974.035156	26086.673828
2972.671875	26036.220703
2971.308594	25994.996094
2969.945313	26244.617188
2968.581055	25978.843750
2967.216797	26016.765625
2965.852539	25960.859375
2964.487305	26120.128906
2963.122070	26279.320313
2961.756836	26024.873047
2960.390625	26092.126953
2959.024414	25839.677734
2957.658203	26132.853516
2956.291016	26135.751953
2954.923828	25923.855469
2953.556641	26117.679688
2952.188477	26357.281250
2950.820313	26125.296875
2949.452148	26067.656250
2948.083008	26255.748047
2946.713867	26300.755859
2945.343750	25872.892578
2943.974609	25873.990234
2942.604492	26032.626953
2941.233398	26427.437500
2939.862305	26219.660156
2938.491211	26498.906250
2937.120117	26525.460938
2935.748047	26487.960938
2934.375977	26426.697266
2933.003906	26246.587891
2931.630859	26494.394531
2930.257813	26736.595703
2928.883789	26456.025391
2927.509766	26464.253906
2926.135742	26487.089844
2924.761719	26666.958984
2923.386719	26406.746094
2922.011719	26524.484375
2920.635742	26503.476563
2919.260742	26338.351563
2917.883789	26660.291016
2916.507813	26493.376953
2915.130859	26189.814453
2913.753906	26363.917969
2912.375977	26257.320313
2910.998047	26378.488281
2909.620117	26754.572266
2908.242188	26700.753906
2906.863281	26612.371094
2905.483398	26524.027344
2904.104492	26495.769531
2902.724609	26432.958984
2901.344727	26455.652344
2899.963867	26543.787109
2898.583008	26677.318359
2897.202148	26589.072266
2895.820313	26722.523438
2894.438477	26570.726563
2893.056641	26642.369141
2891.673828	26605.039063
2890.291016	26821.841797
2888.908203	26791.740234
2887.524414	26647.353516
2886.140625	26517.546875
2884.755859	26748.654297
2883.372070	26553.613281
2881.987305	26606.972656
2880.601563	26756.341797
2879.215820	26541.505859
2877.830078	26703.488281
2876.444336	26640.863281
2875.057617	26703.173828
2873.670898	26803.458984
2872.283203	26845.791016
2870.895508	26546.208984
2869.507813	26577.726563
2868.120117	26511.589844
2866.731445	26620.822266
2865.342773	26632.412109
2863.953125	26522.939453
2862.563477	26655.564453
2861.173828	26685.185547
2859.783203	26875.472656
2858.392578	26895.996094
2857.001953	26808.234375
2855.610352	26529.277344
2854.218750	26582.328125
2852.827148	26622.726563
2851.434570	26495.445313
2850.041992	26721.480469
2848.649414	26754.599609
2847.255859	26674.208984
2845.862305	26444.369141
2844.467773	26378.490234
2843.073242	26352.246094
2841.678711	26336.808594
2840.284180	26231.414063
2838.888672	26212.412109
2837.493164	26107.091797
2836.096680	25861.583984
2834.700195	26248.912109
2833.303711	26091.539063
2831.906250	26094.138672
2830.509766	25988.962891
2829.111328	25829.964844
2827.713867	26012.150391
2826.315430	26117.062500
2824.916016	25780.494141
2823.517578	26118.625000
2822.118164	26024.343750
2820.717773	25974.933594
2819.317383	26212.371094
2817.916992	26030.308594
2816.516602	26106.349609
2815.115234	25747.052734
2813.713867	25952.066406
2812.311523	25791.720703
2810.909180	25962.607422
2809.506836	25931.181641
2808.104492	25660.023438
2806.701172	25752.105469
2805.296875	25967.529297
2803.893555	25812.763672
2802.489258	26053.083984
2801.084961	26075.277344
2799.679688	26045.646484
2798.274414	25865.996094
2796.868164	25682.861328
2795.462891	25999.669922
2794.056641	25866.560547
2792.649414	26110.005859
2791.242188	25855.623047
2789.834961	25667.351563
2788.427734	25958.800781
2787.019531	25877.544922
2785.611328	25933.550781
2784.202148	26042.976563
2782.792969	26045.470703
2781.383789	25775.498047
2779.973633	25952.527344
2778.563477	25860.697266
2777.153320	25993.126953
2775.742188	26066.779297
2774.331055	25695.738281
2772.918945	25981.025391
2771.507813	25953.287109
2770.095703	26192.156250
2768.682617	26214.125000
2767.269531	25848.820313
2765.856445	25945.451172
2764.442383	26176.972656
2763.028320	26023.177734
2761.614258	26057.570313
2760.200195	25861.294922
2758.785156	26167.097656
2757.369141	26045.365234
2755.953125	26008.792969
2754.537109	26039.587891
2753.121094	26068.595703
2751.704102	26095.812500
2750.287109	25979.548828
2748.869141	26247.589844
2747.452148	26126.029297
2746.033203	25988.599609
2744.615234	26169.728516
2743.196289	26218.093750
2741.777344	26209.835938
2740.357422	26160.916016
2738.937500	26230.449219
2737.516602	26043.697266
2736.096680	26132.656250
2734.675781	26131.482422
2733.253906	26262.751953
2731.832031	26137.957031
2730.410156	26195.023438
2728.988281	25976.777344
2727.565430	26127.349609
2726.141602	25983.300781
2724.718750	26213.140625
2723.294922	25938.685547
2721.870117	26037.996094
2720.446289	25950.486328
2719.021484	26097.300781
2717.595703	26395.496094
2716.169922	26035.050781
2714.744141	26199.330078
2713.318359	25895.419922
2711.891602	26012.144531
2710.463867	25981.058594
2709.037109	26208.482422
2707.609375	26226.583984
2706.181641	26067.154297
2704.752930	26002.689453
2703.324219	26085.818359
2701.894531	26163.634766
2700.464844	26192.246094
2699.035156	26159.402344
2697.605469	26051.105469
2696.174805	26141.125000
2694.744141	26269.687500
2693.312500	26187.740234
2691.880859	26188.236328
2690.449219	26018.705078
2689.016602	26178.701172
2687.583984	26180.941406
2686.150391	26156.906250
2684.717773	26013.806641
2683.283203	25914.542969
2681.849609	26125.107422
2680.415039	26337.316406
2678.980469	26040.363281
2677.544922	26049.611328
2676.109375	26062.349609
2674.673828	26234.146484
2673.237305	25946.242188
2671.800781	25864.642578
2670.363281	26006.658203
2668.925781	26117.167969
2667.488281	26133.345703
2666.050781	25828.359375
2664.612305	25933.587891
2663.172852	26019.572266
2661.734375	25960.750000
2660.294922	25837.441406
2658.854492	25895.484375
2657.414063	26103.376953
2655.973633	26053.292969
2654.533203	25870.847656
2653.091797	26078.582031
2651.650391	26018.089844
2650.208008	25938.478516
2648.765625	26046.841797
2647.323242	26188.203125
2645.879883	25865.097656
2644.436523	25916.007813
2642.992188	25680.050781
2641.547852	25755.306641
2640.103516	26304.876953
2638.659180	26161.058594
2637.213867	26048.568359
2635.767578	26120.175781
2634.321289	26049.408203
2632.875000	25799.927734
2631.428711	26109.222656
2629.981445	26189.404297
2628.534180	25978.218750
2627.085938	26224.818359
2625.637695	26147.181641
2624.189453	26315.632813
2622.740234	26177.375000
2621.291016	26120.583984
2619.841797	25909.716797
2618.391602	26105.746094
2616.941406	26026.507813
2615.490234	26156.658203
2614.040039	25852.578125
2612.587891	26242.095703
2611.136719	26152.519531
2609.684570	26237.558594
2608.231445	25999.416016
2606.778320	26032.617188
2605.325195	25870.634766
2603.872070	26102.416016
2602.417969	26192.525391
2600.962891	26059.957031
2599.508789	26289.783203
2598.053711	26015.802734
2596.597656	26207.580078
2595.142578	26180.298828
2593.685547	26137.515625
2592.229492	26080.964844
2590.772461	25984.816406
2589.315430	25948.996094
2587.857422	26217.970703
2586.399414	25858.464844
2584.941406	26042.990234
2583.482422	25976.208984
2582.023438	25893.978516
2580.563477	26179.812500
2579.103516	25972.056641
2577.643555	26030.830078
2576.182617	25922.878906
2574.721680	26031.453125
2573.260742	25957.904297
2571.798828	25870.652344
2570.336914	25877.861328
2568.874023	26099.601563
2567.411133	25885.398438
2565.948242	25896.023438
2564.484375	25856.902344
2563.020508	26008.117188
2561.556641	26082.117188
2560.091797	25911.017578
2558.626953	25868.498047
2557.161133	26144.582031
2555.695313	25677.343750
2554.229492	26050.914063
2552.762695	26003.255859
2551.295898	25741.732422
2549.829102	25868.660156
2548.361328	25824.496094
2546.892578	25725.638672
2545.424805	25732.810547
2543.956055	25656.238281
2542.486328	25588.244141
2541.017578	25875.560547
2539.547852	26015.871094
2538.077148	25927.343750
2536.606445	25763.761719
2535.135742	25702.638672
2533.664063	25696.132813
2532.192383	25773.197266
2530.720703	25608.101563
2529.248047	25727.759766
2527.775391	25980.279297
2526.301758	25949.847656
2524.828125	25742.283203
2523.354492	25529.710938
2521.879883	25421.093750
2520.405273	25624.001953
2518.929688	25542.636719
2517.455078	25699.474609
2515.978516	25487.169922
2514.502930	25825.869141
2513.026367	25865.214844
2511.548828	25811.070313
2510.071289	25520.789063
2508.593750	25658.693359
2507.116211	26008.792969
2505.637695	25643.974609
2504.158203	25771.552734
2502.679688	25563.083984
2501.200195	25649.898438
2499.719727	25580.632813
2498.239258	25482.576172
2496.758789	25806.654297
2495.277344	25752.648438
2493.795898	25597.009766
2492.314453	25576.955078
2490.832031	25624.644531
2489.349609	25599.509766
2487.867188	26071.992188
2486.383789	25706.636719
2484.899414	25720.400391
2483.415039	25580.250000
2481.930664	25768.189453
2480.446289	25354.250000
2478.960938	25826.060547
2477.475586	25723.185547
2475.989258	25632.183594
2474.502930	25689.830078
2473.016602	25657.968750
2471.529297	25840.472656
2470.041992	25545.349609
2468.553711	25572.583984
2467.065430	25630.160156
2465.577148	25707.935547
2464.087891	25649.132813
2462.598633	25854.937500
2461.108398	25393.451172
2459.618164	25530.152344
2458.127930	25555.640625
2456.636719	25719.162109
2455.145508	25763.097656
2453.654297	25704.365234
2452.162109	25623.792969
2450.669922	25674.439453
2449.176758	25958.767578
2447.683594	25621.000000
2446.189453	25747.222656
2444.696289	25619.687500
2443.201172	25853.339844
2441.707031	25562.951172
2440.211914	25630.292969
2438.715820	25922.500000
2437.220703	25818.560547
2435.723633	25461.365234
2434.227539	25496.789063
2432.730469	25426.564453
2431.233398	25674.855469
2429.735352	25370.001953
2428.237305	25629.904297
2426.738281	25578.130859
2425.239258	25618.478516
2423.740234	25526.550781
2422.240234	25384.458984
2420.740234	25593.814453
2419.240234	25694.330078
2417.739258	25577.380859
2416.238281	25503.958984
2414.736328	25684.646484
2413.234375	25307.089844
2411.731445	25499.423828
2410.229492	25678.294922
2408.725586	25451.306641
2407.222656	25332.943359
2405.718750	25419.919922
2404.213867	25254.900391
2402.708984	25617.083984
2401.204102	25375.378906
2399.699219	25177.146484
2398.193359	25345.712891
2396.686523	25437.535156
2395.179688	25487.660156
2393.672852	25544.419922
2392.166016	25614.466797
2390.658203	25371.515625
2389.149414	25496.488281
2387.641602	25579.796875
2386.131836	25376.955078
2384.623047	25116.011719
2383.113281	25265.849609
2381.603516	25570.185547
2380.092773	25542.023438
2378.582031	25282.955078
2377.070313	25264.841797
2375.558594	25470.890625
2374.046875	25665.212891
2372.534180	25089.390625
2371.021484	25018.242188
2369.507813	25298.777344
2367.994141	25454.792969
2366.480469	25438.308594
2364.965820	25489.783203
2363.451172	25377.187500
2361.936523	25143.712891
2360.420898	25258.152344
2358.904297	25104.300781
2357.388672	25304.761719
2355.872070	25415.753906
2354.354492	25048.548828
2352.836914	25452.308594
2351.319336	25205.990234
2349.800781	24974.673828
2348.282227	25125.263672
2346.763672	25146.888672
2345.244141	25257.705078
2343.723633	25165.330078
2342.204102	24919.449219
2340.682617	25423.082031
2339.162109	25324.126953
2337.640625	25241.718750
2336.119141	25205.531250
2334.596680	25149.574219
2333.074219	24885.929688
2331.550781	24948.740234
2330.027344	25108.728516
2328.503906	25115.437500
2326.979492	25125.435547
2325.455078	25125.546875
2323.930664	24855.718750
2322.405273	24949.691406
2320.878906	25232.800781
2319.353516	24900.646484
2317.826172	25269.121094
2316.299805	25341.509766
2314.772461	24976.708984
2313.245117	25236.433594
2311.716797	25206.927734
2310.188477	24891.703125
2308.659180	24863.937500
2307.129883	24857.523438
2305.600586	25090.677734
2304.070313	25115.371094
2302.540039	25297.492188
2301.008789	25277.845703
2299.477539	24871.359375
2297.946289	24663.369141
2296.414063	24868.345703
2294.881836	24706.322266
2293.348633	24735.966797
2291.815430	24867.091797
2290.282227	24975.232422
2288.748047	24898.421875
2287.213867	25017.945313
2285.678711	24856.119141
2284.143555	24584.832031
2282.607422	24946.248047
2281.072266	24983.919922
2279.535156	24933.351563
2277.999023	24887.707031
2276.460938	24677.166016
2274.923828	24936.869141
2273.385742	24690.515625
2271.847656	24697.181641
2270.308594	24827.808594
2268.769531	24702.341797
2267.229492	24739.968750
2265.689453	24681.410156
2264.149414	24893.371094
2262.608398	24904.847656
2261.067383	24836.511719
2259.526367	24685.171875
2257.984375	24743.892578
2256.441406	24867.673828
2254.898438	24674.136719
2253.355469	24789.734375
2251.812500	24846.730469
2250.268555	24768.763672
2248.723633	24620.949219
2247.178711	24861.544922
2245.633789	25022.416016
2244.087891	24749.597656
2242.541992	24598.683594
2240.996094	24746.505859
2239.449219	24806.623047
2237.902344	24626.605469
2236.354492	24548.855469
2234.806641	24613.833984
2233.257813	24622.039063
2231.708984	24609.169922
2230.160156	24678.935547
2228.610352	24695.210938
2227.060547	24845.880859
2225.509766	24526.978516
2223.958984	24674.373047
2222.408203	24802.271484
2220.856445	24718.183594
2219.304688	24706.916016
2217.751953	24829.847656
2216.199219	24587.404297
2214.645508	24682.826172
2213.092773	24846.052734
2211.538086	24498.800781
2209.983398	24485.978516
2208.428711	24634.591797
2206.874023	24673.380859
2205.318359	24968.691406
2203.761719	24804.123047
2202.206055	24783.162109
2200.648438	24702.558594
2199.091797	24488.214844
2197.534180	24462.511719
2195.975586	24512.535156
2194.416992	24842.767578
2192.858398	24818.595703
2191.298828	25055.207031
2189.739258	24636.710938
2188.179688	24604.560547
2186.619141	24828.169922
2185.057617	24686.634766
2183.497070	24615.906250
2181.934570	24707.541016
2180.373047	24689.863281
2178.810547	24736.447266
2177.247070	25054.410156
2175.683594	24916.234375
2174.120117	24705.896484
2172.555664	24887.212891
2170.991211	24898.380859
2169.426758	25049.074219
2167.861328	24813.257813
2166.295898	24795.574219
2164.729492	24689.751953
2163.163086	24699.341797
2161.595703	25034.083984
2160.028320	24785.755859
2158.459961	24747.279297
2156.892578	24916.886719
2155.323242	24839.986328
2153.754883	24606.355469
2152.184570	24617.533203
2150.615234	24913.298828
2149.044922	24714.990234
2147.473633	24716.535156
2145.903320	24893.812500
2144.331055	24684.478516
2142.759766	24944.699219
2141.187500	24673.197266
