#Wave		#Intensity
3550.405273	36809.781250
3549.173828	36775.140625
3547.941406	36799.890625
3546.708984	36959.050781
3545.476563	36971.519531
3544.243164	36969.734375
3543.010742	37169.449219
3541.777344	37143.191406
3540.542969	36887.031250
3539.309570	37066.285156
3538.075195	36930.234375
3536.840820	37211.058594
3535.605469	36558.679688
3534.371094	36941.074219
3533.135742	36872.203125
3531.900391	36921.187500
3530.664063	37055.449219
3529.428711	37029.230469
3528.192383	36954.292969
3526.955078	37291.429688
3525.718750	37303.718750
3524.481445	37100.937500
3523.244141	37198.449219
3522.006836	37070.804688
3520.768555	36957.406250
3519.530273	37348.816406
3518.291992	37302.277344
3517.053711	37393.546875
3515.814453	37028.945313
3514.575195	37424.039063
3513.335938	37353.207031
3512.095703	37553.695313
3510.855469	36993.019531
3509.615234	37244.082031
3508.375000	37499.078125
3507.133789	37780.253906
3505.892578	37675.031250
3504.651367	37246.339844
3503.410156	37422.257813
3502.167969	37335.359375
3500.925781	38010.273438
3499.683594	37343.476563
3498.440430	37571.718750
3497.197266	37717.070313
3495.954102	37989.539063
3494.710938	37634.148438
3493.466797	37500.890625
3492.222656	37656.199219
3490.978516	37833.625000
3489.734375	37918.203125
3488.489258	37867.644531
3487.244141	37798.964844
3485.999023	37875.421875
3484.752930	37532.726563
3483.506836	37568.906250
3482.260742	37645.347656
3481.014648	37929.156250
3479.767578	38239.011719
3478.520508	38065.660156
3477.273438	38021.167969
3476.025391	37849.945313
3474.777344	37793.441406
3473.529297	37928.011719
3472.281250	38084.628906
3471.032227	38307.511719
3469.784180	38293.148438
3468.534180	38385.277344
3467.285156	38302.593750
3466.035156	38442.871094
3464.785156	38245.746094
3463.535156	37685.339844
3462.284180	38050.445313
3461.033203	37985.960938
3459.782227	38009.777344
3458.531250	38350.488281
3457.279297	38257.894531
3456.027344	38125.234375
3454.775391	38142.968750
3453.522461	38240.847656
3452.270508	38088.234375
3451.016602	38256.183594
3449.763672	38369.984375
3448.509766	38607.875000
3447.255859	38475.312500
3446.001953	38270.753906
3444.748047	38028.265625
3443.493164	38526.070313
3442.238281	38307.621094
3440.983398	38335.222656
3439.727539	38504.750000
3438.471680	38446.339844
3437.215820	38425.917969
3435.958984	38625.269531
3434.703125	38369.109375
3433.446289	38636.273438
3432.188477	38627.792969
3430.931641	38383.761719
3429.673828	38191.726563
3428.416016	38849.750000
3427.157227	38456.210938
3425.898438	38252.304688
3424.639648	38401.410156
3423.380859	38101.910156
3422.121094	38300.804688
3420.862305	38557.390625
3419.601563	38144.484375
3418.341797	38275.507813
3417.081055	38215.300781
3415.820313	38658.804688
3414.559570	38654.261719
3413.297852	38677.578125
3412.036133	38259.195313
3410.774414	38254.734375
3409.512695	38630.105469
3408.250000	38398.890625
3406.987305	38543.472656
3405.724609	38240.828125
3404.460938	38172.769531
3403.197266	38013.359375
3401.933594	38499.476563
3400.669922	38312.257813
3399.405273	38365.324219
3398.140625	38162.328125
3396.875977	38229.285156
3395.610352	38105.757813
3394.344727	38480.113281
3393.079102	38205.871094
3391.813477	38096.292969
3390.546875	38179.023438
3389.280273	38216.136719
3388.013672	38417.667969
3386.746094	38040.722656
3385.478516	38030.296875
3384.210938	38237.664063
3382.943359	38561.718750
3381.674805	38272.136719
3380.406250	38285.394531
3379.136719	38597.343750
3377.868164	38345.507813
3376.598633	38236.140625
3375.329102	38362.058594
3374.058594	37962.199219
3372.789063	38354.863281
3371.517578	37777.382813
3370.247070	38086.953125
3368.975586	38431.925781
3367.705078	38524.046875
3366.432617	38349.664063
3365.161133	37991.843750
3363.888672	38468.691406
3362.616211	38322.042969
3361.343750	38335.183594
3360.070313	38490.265625
3358.796875	38203.746094
3357.523438	38516.429688
3356.249023	38417.199219
3354.974609	38182.089844
3353.700195	38362.609375
3352.425781	38214.242188
3351.150391	38071.843750
3349.875000	37736.636719
3348.599609	38408.972656
3347.323242	38671.839844
3346.046875	38547.144531
3344.770508	38512.953125
3343.494141	38248.769531
3342.216797	38468.183594
3340.939453	37995.835938
3339.661133	38498.085938
3338.383789	38177.167969
3337.105469	38308.019531
3335.827148	38423.105469
3334.547852	38755.996094
3333.268555	38176.269531
3331.989258	38666.003906
3330.709961	38592.593750
3329.429688	38358.410156
3328.149414	38565.449219
3326.869141	38419.574219
3325.587891	38655.886719
3324.306641	38414.046875
3323.025391	38938.187500
3321.744141	38870.675781
3320.461914	38478.179688
3319.179688	38500.835938
3317.896484	38476.507813
3316.614258	38197.832031
3315.331055	38969.714844
3314.047852	38663.667969
3312.763672	38320.605469
3311.479492	38747.878906
3310.195313	39055.742188
3308.911133	38957.050781
3307.625977	38754.863281
3306.340820	39156.250000
3305.054688	38854.515625
3303.769531	38917.968750
3302.483398	38916.980469
3301.197266	38691.593750
3299.910156	38835.011719
3298.623047	38802.824219
3297.335938	38782.347656
3296.048828	38746.277344
3294.760742	39275.449219
3293.472656	38919.703125
3292.184570	38986.867188
3290.895508	38991.671875
3289.606445	39251.562500
3288.317383	39215.410156
3287.028320	39274.644531
3285.738281	39094.492188
3284.448242	39204.304688
3283.157227	39164.289063
3281.867188	39361.531250
3280.576172	39331.210938
3279.284180	39611.902344
3277.993164	39466.871094
3276.701172	39378.246094
3275.409180	39400.378906
3274.116211	39762.343750
3272.823242	39491.195313
3271.530273	39474.449219
3270.237305	39667.296875
3268.943359	39629.167969
3267.649414	39565.835938
3266.355469	39405.558594
3265.060547	39542.003906
3263.765625	39461.273438
3262.470703	39465.851563
3261.174805	39764.929688
3259.879883	39831.414063
3258.583008	39760.359375
3257.287109	39507.324219
3255.990234	39705.441406
3254.693359	39928.625000
3253.396484	39609.921875
3252.098633	39616.355469
3250.800781	40069.546875
3249.502930	39665.937500
3248.205078	39778.664063
3246.906250	40011.164063
3245.607422	39745.023438
3244.307617	39925.253906
3243.007813	39468.039063
3241.708008	39569.074219
3240.408203	39768.515625
3239.107422	40162.796875
3237.806641	39900.820313
3236.505859	39997.785156
3235.204102	39988.625000
3233.902344	40116.371094
3232.600586	40257.550781
3231.298828	39830.070313
3229.996094	39869.113281
3228.693359	39649.976563
3227.389648	39924.015625
3226.086914	39781.980469
3224.783203	40044.304688
3223.478516	39992.765625
3222.173828	39977.808594
3220.870117	40216.804688
3219.564453	40492.234375
3218.259766	40115.636719
3216.954102	40096.800781
3215.648438	39574.375000
3214.341797	40061.066406
3213.035156	39886.621094
3211.728516	39865.917969
3210.421875	40286.898438
3209.114258	39818.769531
3207.806641	39928.605469
3206.499023	40236.042969
3205.190430	40205.667969
3203.881836	40188.730469
3202.573242	39759.492188
3201.263672	40256.476563
3199.954102	39823.578125
3198.644531	39940.871094
3197.333984	40259.277344
3196.024414	40136.972656
3194.713867	40056.851563
3193.402344	39921.238281
3192.090820	39753.140625
3190.779297	40006.132813
3189.467773	39767.296875
3188.155273	39641.421875
3186.842773	39945.886719
3185.530273	39642.210938
3184.216797	39845.214844
3182.903320	40164.699219
3181.589844	40078.980469
3180.276367	40010.484375
3178.961914	40142.542969
3177.646484	39627.281250
3176.332031	39810.894531
3175.016602	39956.250000
3173.701172	39914.554688
3172.385742	39924.375000
3171.069336	39892.234375
3169.752930	39692.316406
3168.436523	39831.792969
3167.119141	40125.562500
3165.801758	39653.257813
3164.484375	39724.054688
3163.166016	39777.675781
3161.847656	39743.687500
3160.529297	39669.730469
3159.209961	39266.570313
3157.890625	39740.718750
3156.571289	39935.015625
3155.251953	39615.738281
3153.931641	40011.503906
3152.611328	40091.539063
3151.290039	39835.148438
3149.968750	39525.675781
3148.647461	39888.785156
3147.326172	39972.550781
3146.003906	39955.644531
3144.681641	39925.457031
3143.359375	39804.179688
3142.036133	39709.519531
3140.712891	39599.726563
3139.389648	39520.320313
3138.065430	39456.117188
3136.742188	39962.507813
3135.416992	39754.191406
3134.092773	39911.640625
3132.767578	39909.898438
3131.442383	39690.363281
3130.116211	39590.210938
3128.790039	39819.468750
3127.463867	40099.710938
3126.137695	39802.746094
3124.810547	39604.277344
3123.483398	40056.457031
3122.156250	40117.042969
3120.828125	39778.746094
3119.500000	39901.722656
3118.170898	40151.226563
3116.842773	39988.820313
3115.513672	39947.351563
3114.183594	39983.304688
3112.854492	39856.902344
3111.524414	40257.078125
3110.194336	40085.382813
3108.863281	39964.691406
3107.532227	40296.652344
3106.201172	39993.078125
3104.869141	40258.898438
3103.537109	40123.183594
3102.205078	40277.679688
3100.873047	40443.398438
3099.540039	40109.992188
3098.207031	40213.535156
3096.873047	40279.375000
3095.539063	40443.039063
3094.205078	40151.320313
3092.871094	40472.929688
3091.536133	40181.332031
3090.201172	40194.437500
3088.866211	40532.714844
3087.530273	40355.925781
3086.194336	40213.035156
3084.857422	40415.816406
3083.521484	40214.753906
3082.184570	40192.136719
3080.846680	40400.398438
3079.509766	40563.519531
3078.171875	40445.140625
3076.833008	40279.925781
3075.495117	40542.332031
3074.156250	40639.632813
3072.817383	40384.503906
3071.477539	40764.742188
3070.137695	40397.289063
3068.797852	40541.339844
3067.457031	40698.421875
3066.116211	40774.929688
3064.775391	40651.121094
3063.434570	40839.867188
3062.092773	40790.925781
3060.750977	40951.484375
3059.408203	40964.238281
3058.065430	40517.093750
3056.722656	40685.066406
3055.378906	40849.214844
3054.036133	41170.210938
3052.691406	41070.812500
3051.347656	41053.617188
3050.002930	40930.019531
3048.658203	40978.179688
3047.313477	40955.410156
3045.967773	40932.644531
3044.622070	41249.324219
3043.275391	40999.007813
3041.929688	41067.582031
3040.582031	41098.839844
3039.235352	41199.023438
3037.887695	41261.894531
3036.540039	41157.117188
3035.192383	41117.554688
3033.843750	41167.359375
3032.495117	41222.718750
3031.146484	41041.746094
3029.796875	40909.222656
3028.447266	41200.777344
3027.097656	41027.363281
3025.747070	40950.687500
3024.396484	41258.738281
3023.044922	40882.902344
3021.694336	40447.800781
3020.342773	40830.019531
3018.990234	41005.964844
3017.638672	40957.222656
3016.286133	40897.363281
3014.932617	40815.261719
3013.580078	40764.730469
3012.226563	40927.480469
3010.872070	41027.109375
3009.518555	40867.191406
3008.164063	40900.066406
3006.808594	40925.511719
3005.454102	40856.480469
3004.098633	40780.066406
3002.743164	40768.480469
3001.386719	40782.812500
3000.030273	40795.281250
2998.673828	40942.789063
2997.316406	40781.343750
2995.958984	40797.488281
2994.601563	40700.851563
2993.243164	40639.371094
2991.884766	40953.023438
2990.526367	40721.546875
2989.166992	40806.000000
2987.807617	40639.289063
2986.448242	40900.933594
2985.087891	40747.187500
2983.727539	40907.187500
2982.367188	40434.371094
2981.005859	40832.273438
2979.644531	41097.222656
2978.283203	41019.171875
2976.921875	41160.464844
2975.559570	40938.710938
2974.196289	40877.320313
2972.833984	40944.867188
2971.470703	41063.929688
2970.106445	41096.417969
2968.743164	40987.183594
2967.378906	41124.535156
2966.013672	40682.402344
2964.649414	40895.148438
2963.284180	41164.789063
2961.917969	41149.386719
2960.552734	41264.460938
2959.186523	41197.593750
2957.819336	41066.468750
2956.453125	41310.007813
2955.085938	41384.527344
2953.717773	41387.425781
2952.350586	41133.414063
2950.982422	41541.800781
2949.613281	41124.628906
2948.245117	41188.082031
2946.875977	41141.500000
2945.505859	41371.691406
2944.136719	41391.046875
2942.766602	41745.628906
2941.395508	41838.132813
2940.025391	41269.589844
2938.654297	41720.949219
2937.282227	41818.871094
2935.910156	41867.339844
2934.538086	41798.707031
2933.166016	42004.425781
2931.792969	42151.535156
2930.419922	41839.753906
2929.046875	41855.238281
2927.672852	42002.261719
2926.298828	41884.351563
2924.923828	42409.308594
2923.549805	41955.410156
2922.173828	42410.722656
2920.798828	42135.871094
2919.422852	41972.437500
2918.046875	42376.332031
2916.670898	42349.675781
2915.293945	42082.378906
2913.916992	42352.886719
2912.539063	42402.773438
2911.161133	42261.347656
2909.783203	42129.089844
2908.404297	42062.445313
2907.026367	42159.664063
2905.646484	42418.816406
2904.267578	41990.042969
2902.887695	42576.542969
2901.507813	42178.847656
2900.126953	42306.812500
2898.746094	41889.367188
2897.365234	42522.558594
2895.983398	42394.144531
2894.601563	42480.136719
2893.219727	42580.609375
2891.836914	42232.578125
2890.454102	42389.320313
2889.071289	42787.343750
2887.687500	42597.343750
2886.303711	42365.710938
2884.919922	42772.500000
2883.535156	42743.980469
2882.150391	42528.781250
2880.765625	42525.695313
2879.379883	42287.093750
2877.994141	42512.265625
2876.608398	42367.933594
2875.221680	42840.984375
2873.834961	42387.144531
2872.447266	42315.308594
2871.059570	42608.921875
2869.671875	42584.085938
2868.284180	42561.062500
2866.895508	42299.433594
2865.506836	42460.816406
2864.117188	42367.363281
2862.727539	42288.398438
2861.337891	42458.687500
2859.947266	42302.093750
2858.556641	42098.644531
2857.166016	42402.378906
2855.775391	42152.089844
2854.383789	42114.750000
2852.991211	42162.183594
2851.599609	42454.769531
2850.207031	42426.386719
2848.813477	42275.476563
2847.419922	41600.402344
2846.026367	41572.230469
2844.632813	41815.968750
2843.238281	41866.960938
2841.843750	42047.503906
2840.449219	41666.570313
2839.053711	41302.011719
2837.658203	41615.632813
2836.261719	41515.558594
2834.865234	41350.816406
2833.468750	41648.007813
2832.072266	41476.117188
2830.674805	41449.804688
2829.276367	41691.070313
2827.878906	41535.441406
2826.480469	41376.296875
2825.082031	41271.058594
2823.682617	41408.062500
2822.283203	41582.660156
2820.882813	41538.402344
2819.483398	41255.730469
2818.083008	41448.144531
2816.681641	41396.773438
2815.281250	41250.476563
2813.878906	41170.515625
2812.477539	41391.394531
2811.075195	40892.550781
2809.672852	41265.500000
2808.269531	41393.140625
2806.866211	41302.488281
2805.462891	41063.441406
2804.059570	41620.117188
2802.655273	41257.769531
2801.250000	41392.382813
2799.845703	41226.785156
2798.440430	41157.710938
2797.034180	41249.382813
2795.628906	41221.390625
2794.222656	41395.093750
2792.815430	41172.574219
2791.408203	41506.746094
2790.000977	41614.246094
2788.593750	41288.410156
2787.185547	41552.773438
2785.777344	41330.464844
2784.368164	41571.519531
2782.958984	41643.222656
2781.549805	41592.007813
2780.140625	41740.222656
2778.730469	41617.800781
2777.319336	41548.824219
2775.909180	41510.121094
2774.497070	41843.171875
2773.085938	41639.031250
2771.673828	41778.101563
2770.261719	41822.894531
2768.849609	42038.250000
2767.436523	41597.972656
2766.023438	41795.503906
2764.609375	42008.917969
2763.195313	42073.105469
2761.781250	41650.984375
2760.367188	41770.222656
2758.952148	41887.628906
2757.536133	41834.718750
2756.121094	41999.910156
2754.705078	41886.726563
2753.288086	41980.929688
2751.871094	41486.890625
2750.454102	42029.257813
2749.037109	41905.535156
2747.619141	41996.082031
2746.201172	41598.085938
2744.782227	42085.019531
2743.363281	42155.980469
2741.944336	41970.460938
2740.524414	42092.683594
2739.104492	42444.644531
2737.684570	41741.363281
2736.263672	41943.050781
2734.842773	41916.765625
2733.421875	41597.335938
2732.000000	42340.914063
2730.578125	42356.898438
2729.155273	42409.929688
2727.733398	42411.765625
2726.309570	42515.898438
2724.886719	42108.601563
2723.462891	41990.625000
2722.038086	41962.582031
2720.614258	42255.242188
2719.189453	42246.519531
2717.763672	42096.902344
2716.338867	42081.171875
2714.912109	42281.960938
2713.486328	42100.757813
2712.059570	42051.597656
2710.632813	42088.644531
2709.205078	42500.238281
2707.777344	41702.050781
2706.349609	42236.562500
2704.920898	42264.722656
2703.492188	42234.890625
2702.063477	42220.878906
2700.633789	42071.664063
2699.204102	42227.968750
2697.774414	42040.207031
2696.343750	42399.968750
2694.912109	42203.476563
2693.481445	42226.296875
2692.049805	42252.605469
2690.618164	41912.550781
2689.185547	41977.468750
2687.752930	42042.347656
2686.319336	41988.089844
2684.886719	42308.589844
2683.453125	42294.546875
2682.018555	42168.492188
2680.583984	42261.218750
2679.149414	42241.937500
2677.713867	42871.515625
2676.278320	42691.222656
2674.842773	42547.722656
2673.406250	42178.847656
2671.969727	42185.796875
2670.533203	42114.132813
2669.095703	42185.699219
2667.658203	42100.097656
2666.219727	41951.699219
2664.781250	42272.777344
2663.342773	42562.285156
2661.903320	42295.265625
2660.463867	42030.121094
2659.024414	42342.125000
2657.583984	42092.777344
2656.143555	42355.812500
2654.703125	42406.195313
2653.261719	41874.878906
2651.820313	42141.242188
2650.377930	42297.804688
2648.935547	42311.589844
2647.493164	42125.285156
2646.049805	42264.332031
2644.606445	42498.941406
2643.162109	42291.859375
2641.718750	42477.671875
2640.273438	41952.703125
2638.829102	42680.496094
2637.383789	42237.363281
2635.938477	42487.226563
2634.492188	42469.640625
2633.045898	42516.269531
2631.598633	42339.054688
2630.152344	42323.242188
2628.705078	42470.437500
2627.256836	42251.746094
2625.808594	42671.000000
2624.360352	42549.398438
2622.911133	42867.878906
2621.461914	42455.312500
2620.012695	42863.687500
2618.562500	42655.589844
2617.112305	42459.703125
2615.661133	42731.070313
2614.210938	42364.011719
2612.758789	42623.152344
2611.307617	42913.277344
2609.855469	42520.503906
2608.402344	42635.972656
2606.950195	42637.351563
2605.496094	42890.894531
2604.042969	42964.726563
2602.588867	42857.253906
2601.134766	42394.300781
2599.679688	42511.324219
2598.224609	42824.937500
2596.769531	42840.035156
2595.313477	42691.328125
2593.857422	42861.574219
2592.401367	42818.046875
2590.944336	42474.765625
2589.486328	42596.699219
2588.029297	43205.882813
2586.571289	42888.574219
2585.112305	42714.269531
2583.654297	42696.628906
2582.195313	42563.738281
2580.735352	42497.980469
2579.275391	42605.910156
2577.815430	42572.828125
2576.354492	42635.992188
2574.893555	42742.074219
2573.432617	42468.500000
2571.970703	42569.410156
2570.508789	42728.636719
2569.045898	42220.121094
2567.583984	42576.675781
2566.120117	42619.113281
2564.657227	42490.019531
2563.193359	42700.480469
2561.728516	43054.820313
2560.263672	42678.925781
2558.798828	42459.128906
2557.333984	42443.265625
2555.868164	42525.019531
2554.402344	42964.535156
2552.935547	42476.152344
2551.468750	42484.242188
2550.000977	42458.113281
2548.534180	42154.921875
2547.065430	42593.957031
2545.597656	42518.230469
2544.128906	42454.503906
2542.659180	42686.382813
2541.190430	42431.324219
2539.720703	42272.023438
2538.250000	42449.125000
2536.779297	42706.355469
2535.308594	42809.878906
2533.836914	42882.632813
2532.365234	41885.984375
2530.893555	42294.835938
2529.420898	42463.113281
2527.948242	42356.925781
2526.475586	42399.015625
2525.001953	42134.472656
2523.527344	41975.640625
2522.053711	42276.566406
2520.579102	42471.800781
2519.103516	42335.117188
2517.627930	42666.328125
2516.152344	42561.968750
2514.675781	42680.402344
2513.199219	42302.398438
2511.722656	42298.464844
2510.245117	42590.167969
2508.767578	42575.964844
2507.290039	42500.628906
2505.811523	42362.511719
2504.333008	42567.320313
2502.853516	42529.367188
2501.374023	42432.050781
2499.893555	42268.632813
2498.414063	42510.542969
2496.932617	42501.441406
2495.452148	42609.277344
2493.970703	42444.269531
2492.488281	42452.117188
2491.006836	42012.886719
2489.524414	42312.031250
2488.041016	42509.464844
2486.557617	42532.503906
2485.074219	42398.191406
2483.589844	42262.253906
2482.105469	42637.023438
2480.621094	42421.636719
2479.135742	42441.265625
2477.650391	42508.187500
2476.164063	42696.691406
2474.677734	42510.195313
2473.191406	42342.367188
2471.704102	42498.683594
2470.216797	42368.058594
2468.728516	42559.707031
2467.240234	42685.484375
2465.751953	42339.066406
2464.262695	42356.941406
2462.773438	42519.734375
2461.283203	43022.781250
2459.793945	42331.308594
2458.302734	42909.917969
2456.812500	42720.523438
2455.321289	42815.667969
2453.829102	42266.285156
2452.336914	42427.097656
2450.844727	42466.734375
2449.351563	42872.894531
2447.858398	42772.863281
2446.365234	42363.660156
2444.871094	42394.851563
2443.376953	42644.386719
2441.882813	42601.597656
2440.387695	42570.574219
2438.891602	42705.730469
2437.395508	42532.058594
2435.899414	42992.593750
2434.403320	43062.117188
2432.906250	42343.546875
2431.409180	42352.843750
2429.911133	42285.042969
2428.413086	42775.187500
2426.914063	42894.906250
2425.416016	42703.089844
2423.916016	42760.812500
2422.416992	42783.355469
2420.916992	42283.816406
2419.416016	42483.785156
2417.915039	42350.832031
2416.414063	42393.500000
2414.912109	42519.726563
2413.410156	42876.496094
2411.908203	42601.550781
2410.405273	42331.753906
2408.902344	42487.906250
2407.398438	42547.144531
2405.894531	42621.371094
2404.390625	42101.542969
2402.885742	42542.828125
2401.380859	42800.437500
2399.875977	42541.046875
2398.370117	42465.140625
2396.863281	42369.273438
2395.356445	42171.820313
2393.849609	42192.660156
2392.342773	42461.593750
2390.834961	42324.187500
2389.327148	42396.554688
2387.818359	42433.937500
2386.309570	42438.023438
2384.799805	42089.546875
2383.290039	42456.160156
2381.780273	42782.691406
2380.269531	42171.824219
2378.758789	42112.824219
2377.248047	42165.132813
2375.736328	42757.062500
2374.223633	42540.242188
2372.711914	42426.421875
2371.199219	42062.125000
2369.685547	42303.453125
2368.171875	42501.542969
2366.658203	42283.386719
2365.143555	42320.593750
2363.628906	42545.023438
2362.114258	42595.386719
2360.598633	42453.601563
2359.083008	42580.121094
2357.566406	42655.253906
2356.049805	42303.375000
2354.532227	42681.308594
2353.014648	42217.117188
2351.497070	42136.808594
2349.978516	42661.617188
2348.459961	42624.199219
2346.941406	42358.769531
2345.421875	42367.695313
2343.902344	42057.867188
2342.381836	42390.472656
2340.861328	42404.324219
2339.340820	42622.796875
2337.819336	42342.902344
2336.296875	42500.238281
2334.775391	42439.828125
2333.252930	42559.132813
2331.729492	42033.957031
2330.206055	42499.316406
2328.682617	42300.578125
2327.158203	42264.980469
2325.633789	42267.261719
2324.109375	42348.546875
2322.583984	42650.292969
2321.057617	42476.429688
2319.532227	42136.531250
2318.005859	42665.003906
2316.478516	42338.378906
2314.951172	42079.296875
2313.423828	42812.742188
2311.895508	42248.136719
2310.367188	42247.093750
2308.838867	42544.847656
2307.309570	42102.195313
2305.779297	42389.980469
2304.250000	42441.378906
2302.718750	42220.496094
2301.188477	42240.750000
2299.657227	42072.480469
2298.125000	41935.429688
2296.593750	41988.500000
2295.061523	42118.519531
2293.528320	42426.960938
2291.995117	42028.007813
2290.461914	41972.960938
2288.927734	41458.144531
2287.393555	41768.058594
2285.858398	42036.921875
2284.323242	41635.292969
2282.788086	41856.640625
2281.251953	42112.191406
2279.715820	42034.320313
2278.178711	41837.253906
2276.641602	42126.886719
2275.103516	42222.101563
2273.566406	41878.246094
2272.027344	41731.988281
2270.489258	41771.761719
2268.950195	42095.261719
2267.410156	41826.773438
2265.870117	41775.203125
2264.330078	42056.074219
2262.789063	41769.871094
2261.248047	41695.539063
2259.706055	41963.175781
2258.165039	41887.199219
2256.622070	41957.722656
2255.079102	41821.578125
2253.536133	41745.683594
2251.993164	41513.714844
2250.449219	41151.804688
2248.904297	41815.644531
2247.359375	42051.789063
2245.814453	41969.414063
2244.269531	41726.300781
2242.723633	41676.519531
2241.176758	42016.328125
2239.629883	41979.468750
2238.083008	41762.546875
2236.535156	41988.519531
2234.987305	41873.855469
2233.439453	42329.867188
2231.890625	41816.480469
2230.340820	41727.859375
2228.791992	42026.421875
2227.242188	42143.453125
2225.691406	41821.671875
2224.140625	42022.847656
2222.589844	41893.816406
2221.038086	42038.246094
2219.486328	41977.195313
2217.933594	42013.187500
2216.380859	41978.031250
2214.828125	42025.308594
2213.274414	42070.941406
2211.719727	42194.078125
2210.166016	41966.734375
2208.611328	41960.675781
2207.055664	41986.894531
2205.500000	42179.289063
2203.944336	42336.093750
2202.387695	42070.285156
2200.831055	42228.640625
2199.273438	42262.792969
2197.715820	42161.566406
2196.158203	42152.218750
2194.599609	42141.257813
2193.041016	42096.484375
2191.481445	42505.683594
2189.921875	42272.539063
2188.362305	42375.777344
2186.801758	42131.519531
2185.240234	42294.230469
2183.679688	42307.343750
2182.117188	42215.972656
2180.555664	42233.906250
2178.993164	42047.816406
2177.430664	42501.003906
2175.867188	42062.855469
2174.302734	42376.148438
2172.739258	42572.125000
2171.174805	42381.355469
2169.609375	42275.687500
2168.043945	42160.449219
2166.478516	42473.289063
2164.912109	42084.000000
2163.345703	42335.800781
2161.779297	42907.832031
2160.211914	42312.140625
2158.643555	42678.945313
2157.075195	42253.277344
2155.506836	42237.464844
2153.937500	42706.371094
2152.368164	42252.230469
2150.798828	42284.382813
2149.228516	42487.554688
2147.657227	42776.910156
2146.086914	42308.828125
2144.515625	42717.863281
2142.943359	42195.742188
2141.371094	42200.699219
