#Wave		#Intensity
3550.213867	265811.781250
3548.982422	265151.593750
3547.750000	265726.531250
3546.517578	264462.062500
3545.285156	265075.531250
3544.051758	264131.281250
3542.819336	266157.062500
3541.585938	266462.406250
3540.351563	266608.875000
3539.118164	266987.156250
3537.883789	265982.375000
3536.649414	267222.656250
3535.414063	264222.000000
3534.179688	264427.593750
3532.944336	265512.875000
3531.708008	265675.406250
3530.472656	265088.343750
3529.236328	265476.218750
3528.000000	265618.250000
3526.763672	265151.250000
3525.526367	266169.875000
3524.289063	265794.218750
3523.051758	265447.062500
3521.814453	267109.781250
3520.576172	267044.281250
3519.337891	266877.406250
3518.099609	266467.406250
3516.861328	267676.500000
3515.622070	265965.843750
3514.382813	267794.218750
3513.143555	267139.218750
3511.903320	268616.281250
3510.663086	266627.468750
3509.422852	268290.093750
3508.182617	267671.843750
3506.941406	267743.593750
3505.700195	268573.625000
3504.458984	267852.500000
3503.216797	268023.125000
3501.975586	267959.218750
3500.733398	269303.625000
3499.490234	268253.562500
3498.248047	269449.843750
3497.004883	269930.718750
3495.761719	269008.312500
3494.517578	270044.093750
3493.274414	270657.656250
3492.030273	269517.687500
3490.785156	270796.687500
3489.541016	272319.093750
3488.295898	270633.031250
3487.050781	270763.843750
3485.805664	271051.812500
3484.559570	271454.437500
3483.313477	271081.312500
3482.067383	271352.812500
3480.820313	270160.281250
3479.574219	271216.906250
3478.327148	270737.375000
3477.079102	272199.843750
3475.832031	272402.250000
3474.583984	272067.468750
3473.335938	272062.625000
3472.087891	271707.906250
3470.838867	272635.750000
3469.589844	272990.406250
3468.340820	272707.968750
3467.090820	271841.062500
3465.840820	273406.593750
3464.590820	272240.687500
3463.340820	272261.656250
3462.089844	272316.687500
3460.838867	271803.812500
3459.587891	272430.625000
3458.336914	273360.000000
3457.084961	273372.531250
3455.833008	273084.281250
3454.581055	273379.437500
3453.328125	273269.625000
3452.075195	272899.343750
3450.822266	272655.406250
3449.569336	273625.156250
3448.315430	274924.812500
3447.061523	272584.625000
3445.807617	273731.781250
3444.552734	274460.218750
3443.297852	274642.156250
3442.042969	274118.000000
3440.788086	273268.093750
3439.532227	274269.750000
3438.276367	274843.218750
3437.020508	273973.625000
3435.764648	273158.343750
3434.507813	274009.218750
3433.250977	273971.031250
3431.993164	273719.218750
3430.736328	273477.468750
3429.478516	274065.968750
3428.219727	273852.093750
3426.961914	272650.906250
3425.703125	273089.531250
3424.444336	274375.312500
3423.185547	272993.312500
3421.925781	274854.468750
3420.666016	273383.250000
3419.406250	273101.906250
3418.146484	272908.312500
3416.885742	273559.031250
3415.625000	274243.312500
3414.363281	273969.875000
3413.102539	273075.687500
3411.840820	273441.187500
3410.579102	274178.468750
3409.316406	273248.906250
3408.053711	273341.687500
3406.791016	272881.781250
3405.528320	272181.593750
3404.264648	272872.468750
3403.000977	271894.406250
3401.737305	272237.468750
3400.473633	272111.718750
3399.208984	272065.406250
3397.944336	272207.625000
3396.679688	270833.812500
3395.414063	271011.906250
3394.148438	272528.625000
3392.882813	272622.906250
3391.616211	271612.906250
3390.350586	271885.656250
3389.083984	271329.968750
3387.816406	272127.625000
3386.549805	271350.250000
3385.282227	272139.562500
3384.013672	270699.187500
3382.746094	272101.843750
3381.477539	272086.906250
3380.208984	271982.937500
3378.940430	273040.093750
3377.670898	271510.000000
3376.401367	270664.687500
3375.131836	271503.906250
3373.861328	270042.281250
3372.590820	271288.250000
3371.320313	270690.531250
3370.049805	271208.906250
3368.778320	270905.625000
3367.506836	271715.843750
3366.235352	271627.656250
3364.962891	271275.062500
3363.691406	271441.437500
3362.417969	270276.343750
3361.145508	271062.000000
3359.872070	270794.500000
3358.598633	270548.750000
3357.325195	271749.500000
3356.050781	271119.437500
3354.777344	272354.906250
3353.501953	271921.843750
3352.227539	271185.750000
3350.952148	270570.031250
3349.676758	271379.312500
3348.401367	272388.906250
3347.125000	271600.125000
3345.848633	272925.812500
3344.572266	273002.312500
3343.294922	272888.093750
3342.018555	272382.781250
3340.740234	271736.187500
3339.462891	272451.218750
3338.184570	271525.968750
3336.906250	270828.875000
3335.627930	270599.281250
3334.349609	270846.687500
3333.070313	272394.906250
3331.791016	272155.218750
3330.510742	273314.031250
3329.230469	272013.312500
3327.950195	273536.250000
3326.669922	273470.812500
3325.388672	273060.531250
3324.107422	273187.187500
3322.826172	271192.468750
3321.544922	273450.000000
3320.262695	272648.406250
3318.980469	273360.156250
3317.697266	273251.625000
3316.415039	273096.156250
3315.131836	274664.000000
3313.847656	274359.593750
3312.564453	274346.593750
3311.280273	273023.906250
3309.996094	274986.968750
3308.710938	274221.531250
3307.425781	275804.375000
3306.140625	275490.187500
3304.855469	274719.187500
3303.569336	274073.468750
3302.283203	273710.968750
3300.997070	274837.375000
3299.709961	274022.250000
3298.423828	273605.312500
3297.135742	274615.843750
3295.848633	274516.687500
3294.560547	274922.312500
3293.272461	275397.875000
3291.984375	275362.781250
3290.695313	276280.062500
3289.406250	275584.625000
3288.117188	275948.500000
3286.827148	274994.531250
3285.538086	276002.406250
3284.247070	277046.781250
3282.957031	276357.625000
3281.666016	276724.656250
3280.375000	278028.562500
3279.083984	275998.406250
3277.791992	276849.062500
3276.500000	277658.500000
3275.208008	277779.906250
3273.915039	277619.687500
3272.623047	276719.781250
3271.329102	277937.937500
3270.036133	277886.343750
3268.742188	277516.593750
3267.448242	277719.156250
3266.154297	277547.343750
3264.859375	277040.125000
3263.564453	276893.687500
3262.269531	276280.218750
3260.973633	276426.500000
3259.677734	276768.343750
3258.381836	276987.968750
3257.085938	276646.000000
3255.789063	276770.656250
3254.492188	276473.312500
3253.195313	276286.375000
3251.897461	276480.593750
3250.599609	277734.468750
3249.301758	276909.218750
3248.002930	275730.562500
3246.704102	276100.468750
3245.405273	277071.062500
3244.105469	277254.968750
3242.806641	276955.937500
3241.505859	276330.687500
3240.206055	277130.375000
3238.905273	277308.187500
3237.604492	277009.281250
3236.303711	276417.281250
3235.001953	277362.656250
3233.700195	276066.937500
3232.398438	277089.031250
3231.095703	276327.812500
3229.793945	274408.812500
3228.490234	275600.000000
3227.187500	275542.562500
3225.883789	277012.093750
3224.580078	276226.562500
3223.276367	276032.281250
3221.971680	276638.531250
3220.666992	277125.187500
3219.362305	275695.906250
3218.056641	275492.187500
3216.750977	275430.750000
3215.445313	274969.562500
3214.138672	274942.843750
3212.832031	275317.593750
3211.525391	274920.031250
3210.218750	274966.218750
3208.911133	275277.281250
3207.603516	275434.593750
3206.295898	275480.531250
3204.987305	275242.468750
3203.678711	274484.718750
3202.369141	275587.343750
3201.060547	274860.468750
3199.750977	275651.937500
3198.441406	275032.593750
3197.130859	275084.093750
3195.820313	275129.781250
3194.509766	274763.687500
3193.199219	274351.812500
3191.887695	274600.437500
3190.576172	273605.031250
3189.263672	273365.781250
3187.951172	273863.031250
3186.638672	273591.281250
3185.326172	273579.625000
3184.012695	275337.937500
3182.699219	274953.187500
3181.385742	273580.812500
3180.072266	273313.093750
3178.757813	273454.156250
3177.442383	272844.781250
3176.127930	273537.437500
3174.812500	272561.875000
3173.497070	273031.000000
3172.180664	272237.156250
3170.865234	271651.500000
3169.547852	271203.375000
3168.231445	272097.312500
3166.914063	272522.031250
3165.596680	271447.093750
3164.279297	270873.562500
3162.960938	271180.125000
3161.642578	271671.156250
3160.324219	270328.906250
3159.004883	271487.812500
3157.685547	270897.687500
3156.366211	270115.718750
3155.046875	269971.125000
3153.726563	270838.031250
3152.406250	270451.875000
3151.084961	270472.531250
3149.763672	270977.656250
3148.442383	271188.093750
3147.121094	271206.593750
3145.798828	271242.125000
3144.476563	270822.062500
3143.154297	270396.500000
3141.831055	271082.875000
3140.507813	270462.000000
3139.184570	269591.062500
3137.860352	268889.218750
3136.536133	269434.937500
3135.211914	268830.062500
3133.886719	269256.125000
3132.561523	269947.125000
3131.236328	269920.062500
3129.910156	269073.156250
3128.583984	269199.562500
3127.257813	270406.468750
3125.931641	270375.406250
3124.604492	270281.906250
3123.277344	270759.531250
3121.949219	270450.406250
3120.622070	269090.468750
3119.293945	269445.093750
3117.964844	269287.562500
3116.635742	270395.593750
3115.306641	271155.625000
3113.977539	270348.218750
3112.647461	270228.250000
3111.317383	271601.000000
3109.987305	270122.312500
3108.656250	270064.625000
3107.325195	270340.718750
3105.994141	269525.062500
3104.662109	269309.125000
3103.331055	269483.375000
3101.998047	270448.750000
3100.666016	270556.656250
3099.333008	269815.187500
3098.000000	270907.750000
3096.666016	270574.937500
3095.332031	271499.281250
3093.998047	271591.625000
3092.664063	271074.437500
3091.329102	271273.968750
3089.994141	271225.187500
3088.658203	271977.093750
3087.322266	271572.937500
3085.986328	273701.468750
3084.650391	272641.531250
3083.313477	272778.250000
3081.976563	272937.375000
3080.639648	272396.343750
3079.301758	272728.062500
3077.963867	273266.000000
3076.625977	273419.125000
3075.287109	273433.406250
3073.948242	273687.593750
3072.609375	274487.062500
3071.269531	274268.625000
3069.929688	276686.125000
3068.589844	275871.625000
3067.249023	276830.718750
3065.908203	276359.093750
3064.567383	277048.062500
3063.225586	277669.312500
3061.883789	277889.875000
3060.541992	278836.000000
3059.200195	276150.406250
3057.857422	275855.156250
3056.513672	276244.062500
3055.170898	277942.562500
3053.827148	277002.531250
3052.483398	276042.343750
3051.138672	276535.250000
3049.793945	275924.687500
3048.449219	277212.375000
3047.104492	277006.750000
3045.758789	276575.468750
3044.413086	276599.437500
3043.066406	277628.343750
3041.719727	277379.812500
3040.373047	276344.906250
3039.026367	277337.625000
3037.678711	276372.093750
3036.331055	275876.312500
3034.982422	275868.531250
3033.634766	276106.406250
3032.286133	275287.125000
3030.936523	276721.343750
3029.586914	276555.125000
3028.237305	277791.187500
3026.887695	276107.593750
3025.537109	276462.031250
3024.186523	276201.156250
3022.835938	276434.562500
3021.484375	274294.000000
3020.132813	276420.000000
3018.780273	276343.062500
3017.428711	276501.875000
3016.076172	277798.093750
3014.722656	276924.875000
3013.370117	278517.125000
3012.016602	278194.843750
3010.662109	279823.031250
3009.307617	280164.062500
3007.953125	279778.531250
3006.598633	281329.125000
3005.243164	280282.218750
3003.887695	281902.281250
3002.532227	280324.343750
3001.175781	282545.062500
2999.819336	282299.968750
2998.462891	281179.906250
2997.105469	281601.031250
2995.748047	280701.656250
2994.390625	282472.125000
2993.032227	282430.468750
2991.673828	282994.875000
2990.315430	284017.125000
2988.956055	285705.562500
2987.596680	286951.875000
2986.237305	286371.875000
2984.876953	288621.312500
2983.516602	289447.125000
2982.156250	289992.093750
2980.794922	290896.375000
2979.433594	292150.531250
2978.072266	291951.500000
2976.709961	292633.437500
2975.347656	294013.312500
2973.985352	294873.031250
2972.622070	295242.468750
2971.258789	296086.687500
2969.895508	295897.875000
2968.531250	297803.281250
2967.166992	299498.031250
2965.802734	300121.406250
2964.437500	301844.125000
2963.072266	303874.875000
2961.706055	302261.625000
2960.340820	304333.468750
2958.974609	304850.062500
2957.607422	305660.250000
2956.241211	305500.468750
2954.874023	305669.375000
2953.505859	308110.312500
2952.137695	309008.750000
2950.769531	309875.500000
2949.401367	310475.875000
2948.032227	311306.937500
2946.663086	312988.187500
2945.293945	314626.437500
2943.923828	318107.125000
2942.553711	320391.781250
2941.182617	323312.593750
2939.812500	324600.593750
2938.441406	326645.750000
2937.069336	329385.343750
2935.697266	328987.562500
2934.325195	329460.656250
2932.953125	329618.937500
2931.580078	330892.343750
2930.207031	330531.031250
2928.833008	330169.812500
2927.459961	330857.468750
2926.084961	330660.687500
2924.710938	329958.125000
2923.335938	329060.531250
2921.960938	328782.062500
2920.584961	327166.156250
2919.209961	325943.218750
2917.833008	326212.781250
2916.457031	324100.750000
2915.080078	322556.656250
2913.703125	321425.187500
2912.325195	322098.156250
2910.947266	320652.125000
2909.569336	320383.281250
2908.190430	319748.562500
2906.812500	319658.375000
2905.432617	319056.843750
2904.053711	319590.906250
2902.673828	318960.500000
2901.292969	318523.125000
2899.913086	320135.000000
2898.532227	318526.875000
2897.150391	319423.718750
2895.769531	319613.312500
2894.387695	318896.437500
2893.004883	319171.343750
2891.623047	319268.218750
2890.240234	319016.468750
2888.856445	319245.718750
2887.473633	320590.531250
2886.088867	321856.687500
2884.705078	322683.375000
2883.320313	322684.750000
2881.935547	321841.500000
2880.550781	321553.093750
2879.165039	320279.281250
2877.779297	318220.062500
2876.392578	317854.781250
2875.006836	315862.250000
2873.619141	316065.906250
2872.232422	315697.718750
2870.844727	313622.031250
2869.457031	313811.531250
2868.068359	312180.218750
2866.679688	310846.125000
2865.291016	309649.968750
2863.901367	308485.093750
2862.511719	306300.218750
2861.122070	305003.031250
2859.732422	304629.000000
2858.341797	304002.406250
2856.950195	304408.281250
2855.559570	304056.218750
2854.166992	304023.562500
2852.775391	305168.343750
2851.382813	305569.812500
2849.990234	306445.062500
2848.597656	303517.906250
2847.204102	301485.625000
2845.810547	297566.875000
2844.416992	294726.750000
2843.022461	289103.156250
2841.627930	287394.812500
2840.232422	282981.218750
2838.836914	278057.093750
2837.441406	276224.937500
2836.044922	274087.968750
2834.649414	273125.812500
2833.251953	272593.562500
2831.855469	271438.125000
2830.458008	271023.250000
2829.059570	269678.375000
2827.662109	267300.031250
2826.263672	266787.687500
2824.864258	267868.968750
2823.465820	267292.093750
2822.066406	266008.812500
2820.666016	266427.781250
2819.265625	265073.593750
2817.865234	264413.593750
2816.464844	263678.656250
2815.063477	263531.625000
2813.662109	262969.125000
2812.259766	262560.843750
2810.857422	261907.531250
2809.455078	262063.390625
2808.052734	262038.437500
2806.649414	263068.812500
2805.245117	262313.968750
2803.841797	263061.218750
2802.437500	262678.468750
2801.032227	262256.562500
2799.627930	262131.375000
2798.222656	261256.093750
2796.816406	261738.296875
2795.410156	260772.437500
2794.003906	261996.921875
2792.597656	261634.515625
2791.190430	261345.406250
2789.783203	261705.578125
2788.375000	261172.265625
2786.966797	261555.421875
2785.558594	261772.625000
2784.150391	262490.343750
2782.741211	261269.687500
2781.331055	260359.468750
2779.921875	260859.718750
2778.511719	261085.593750
2777.100586	262090.734375
2775.690430	262221.843750
2774.278320	261376.421875
2772.867188	261607.156250
2771.455078	260810.234375
2770.042969	262054.000000
2768.630859	261552.265625
2767.217773	261356.296875
2765.803711	262066.140625
2764.390625	262599.812500
2762.976563	261402.500000
2761.562500	261497.687500
2760.147461	261479.265625
2758.732422	262007.140625
2757.317383	262635.812500
2755.901367	262127.703125
2754.485352	261157.203125
2753.068359	261622.515625
2751.651367	261623.390625
2750.234375	262132.578125
2748.817383	261821.640625
2747.399414	261549.781250
2745.981445	261985.953125
2744.562500	262850.093750
2743.143555	263039.781250
2741.724609	263942.062500
2740.304688	262960.875000
2738.884766	263532.156250
2737.464844	263205.343750
2736.043945	263346.875000
2734.623047	263145.656250
2733.201172	263076.937500
2731.779297	263698.531250
2730.357422	264183.875000
2728.935547	264298.406250
2727.512695	264361.656250
2726.088867	263541.250000
2724.666016	263454.750000
2723.242188	262756.562500
2721.817383	262841.187500
2720.393555	262892.281250
2718.968750	262397.218750
2717.542969	263038.312500
2716.117188	262154.312500
2714.691406	262356.781250
2713.265625	261585.968750
2711.838867	260542.812500
2710.411133	261529.937500
2708.984375	262544.656250
2707.556641	261394.734375
2706.127930	261433.468750
2704.700195	260855.406250
2703.271484	260925.828125
2701.841797	260709.921875
2700.412109	260530.953125
2698.982422	260338.015625
2697.552734	260508.421875
2696.122070	260154.109375
2694.690430	259828.015625
2693.259766	258742.718750
2691.828125	259630.328125
2690.395508	258445.656250
2688.963867	258633.640625
2687.531250	258754.937500
2686.097656	258618.671875
2684.664063	258967.500000
2683.230469	259874.562500
2681.795898	258941.718750
2680.362305	259241.125000
2678.926758	257892.515625
2677.492188	258543.500000
2676.056641	258879.421875
2674.620117	259839.187500
2673.183594	257972.640625
2671.747070	258117.937500
2670.310547	257974.921875
2668.873047	258324.406250
2667.435547	258219.781250
2665.997070	256818.359375
2664.558594	257736.640625
2663.120117	257689.718750
2661.680664	257266.078125
2660.241211	255613.359375
2658.801758	255233.984375
2657.361328	255813.281250
2655.920898	255880.031250
2654.479492	255169.828125
2653.038086	255887.953125
2651.596680	257570.218750
2650.154297	254961.062500
2648.711914	256002.296875
2647.269531	256538.453125
2645.826172	256275.984375
2644.382813	256578.750000
2642.938477	255885.234375
2641.495117	255649.125000
2640.049805	256391.343750
2638.605469	256691.937500
2637.160156	256639.812500
2635.713867	255967.843750
2634.268555	256292.546875
2632.822266	256462.593750
2631.375000	255695.687500
2629.927734	255106.046875
2628.480469	256054.796875
2627.032227	255158.468750
2625.583984	256449.843750
2624.135742	256300.625000
2622.686523	256688.468750
2621.237305	256338.312500
2619.788086	257208.984375
2618.337891	257442.171875
2616.887695	255383.937500
2615.436523	256570.718750
2613.985352	256328.156250
2612.534180	254767.968750
2611.082031	255551.109375
2609.629883	255620.015625
2608.177734	255052.968750
2606.724609	255660.890625
2605.271484	254451.578125
2603.817383	255487.515625
2602.364258	254446.250000
2600.909180	254862.062500
2599.455078	253655.781250
2598.000000	254400.984375
2596.543945	254562.921875
2595.087891	254578.187500
2593.631836	253740.218750
2592.175781	254744.765625
2590.718750	254322.312500
2589.260742	254754.343750
2587.803711	254810.734375
2586.345703	254643.296875
2584.886719	252851.250000
2583.427734	253154.062500
2581.968750	253277.796875
2580.509766	253790.093750
2579.049805	254049.375000
2577.588867	252687.609375
2576.128906	252029.343750
2574.667969	253156.390625
2573.206055	252937.984375
2571.744141	251641.312500
2570.282227	252297.140625
2568.820313	252489.234375
2567.357422	251349.718750
2565.893555	250749.375000
2564.430664	251725.375000
2562.966797	250873.156250
2561.501953	251714.890625
2560.037109	251443.984375
2558.572266	252216.562500
2557.106445	250436.640625
2555.641602	250482.984375
2554.174805	250917.890625
2552.708008	249651.312500
2551.241211	250647.390625
2549.774414	249499.500000
2548.306641	249443.281250
2546.838867	249746.125000
2545.370117	250018.015625
2543.901367	249992.390625
2542.432617	249648.984375
2540.962891	249274.984375
2539.493164	249246.078125
2538.022461	248327.718750
2536.551758	248809.343750
2535.081055	248060.437500
2533.609375	248115.359375
2532.137695	247165.703125
2530.666016	247701.593750
2529.193359	247149.656250
2527.720703	247525.046875
2526.247070	246360.031250
2524.773438	245824.109375
2523.299805	247057.718750
2521.825195	246467.359375
2520.350586	247560.562500
2518.875000	248205.671875
2517.400391	247540.546875
2515.923828	246760.078125
2514.448242	246927.046875
2512.971680	246255.890625
2511.494141	245615.625000
2510.016602	245560.109375
2508.539063	245574.250000
2507.061523	245790.437500
2505.583008	246045.531250
2504.103516	246850.375000
2502.625000	245747.562500
2501.144531	245720.796875
2499.665039	245578.687500
2498.184570	245378.984375
2496.704102	246440.531250
2495.222656	245932.218750
2493.741211	244793.890625
2492.259766	245434.625000
2490.777344	246542.390625
2489.294922	245342.062500
2487.811523	245841.625000
2486.328125	245796.046875
2484.844727	246066.796875
2483.360352	244796.687500
2481.875977	245307.609375
2480.390625	244415.234375
2478.906250	244016.750000
2477.419922	244197.968750
2475.934570	244897.593750
2474.447266	243350.937500
2472.960938	243984.546875
2471.473633	245154.531250
2469.986328	245024.625000
2468.498047	244790.156250
2467.009766	244773.359375
2465.521484	244129.312500
2464.032227	244837.468750
2462.542969	244412.765625
2461.052734	244343.750000
2459.563477	243557.203125
2458.072266	244460.015625
2456.582031	244247.875000
2455.089844	244722.515625
2453.598633	244215.890625
2452.106445	244508.562500
2450.614258	244173.750000
2449.121094	244987.453125
2447.627930	243634.000000
2446.134766	243592.015625
2444.640625	243341.687500
2443.145508	243907.765625
2441.651367	243017.656250
2440.156250	242166.593750
2438.660156	243363.531250
2437.165039	241960.734375
2435.667969	242051.593750
2434.171875	242098.781250
2432.674805	242254.906250
2431.177734	243187.000000
2429.679688	242348.984375
2428.181641	241987.171875
2426.682617	241734.375000
2425.183594	241630.734375
2423.684570	240805.578125
2422.184570	241631.046875
2420.684570	240540.234375
2419.184570	240306.421875
2417.683594	240918.921875
2416.181641	240919.156250
2414.680664	240153.812500
2413.178711	240165.890625
2411.675781	239992.500000
2410.172852	239363.203125
2408.669922	240208.640625
2407.166016	239115.484375
2405.662109	239206.140625
2404.158203	237788.375000
2402.653320	239408.921875
2401.148438	238852.312500
2399.642578	239257.953125
2398.136719	238961.640625
2396.630859	238583.796875
2395.124023	238804.203125
2393.617188	239564.109375
2392.109375	238646.843750
2390.601563	238529.078125
2389.093750	238684.265625
2387.584961	239792.734375
2386.076172	238462.078125
2384.566406	237522.875000
2383.056641	237781.156250
2381.546875	238521.296875
2380.036133	236695.390625
2378.525391	236440.296875
2377.013672	236276.640625
2375.502930	236333.890625
2373.990234	236095.609375
2372.477539	236486.390625
2370.964844	236200.031250
2369.452148	235653.390625
2367.938477	236798.437500
2366.423828	236744.250000
2364.910156	236181.234375
2363.395508	236612.687500
2361.879883	235268.046875
2360.364258	235788.906250
2358.848633	236418.734375
2357.332031	236172.578125
2355.815430	235931.484375
2354.297852	235855.937500
2352.780273	236056.640625
2351.262695	235437.015625
2349.744141	235014.421875
2348.225586	234734.171875
2346.707031	234668.828125
2345.187500	234762.078125
2343.666992	235015.453125
2342.147461	233842.171875
2340.625977	233281.859375
2339.105469	234297.734375
2337.583984	233963.562500
2336.062500	234281.031250
2334.540039	234214.109375
2333.017578	233306.468750
2331.494141	233475.468750
2329.970703	233433.453125
2328.447266	232679.843750
2326.922852	233235.796875
2325.398438	232439.781250
2323.873047	231877.859375
2322.348633	231967.843750
2320.822266	232008.406250
2319.295898	231892.687500
2317.769531	232372.218750
2316.243164	230993.953125
2314.715820	230751.968750
2313.187500	231858.968750
2311.660156	230255.171875
2310.130859	231317.343750
2308.602539	231510.500000
2307.073242	231040.437500
2305.542969	231663.421875
2304.013672	230698.109375
2302.482422	231514.343750
2300.952148	230611.828125
2299.420898	229637.640625
2297.888672	230574.703125
2296.356445	229281.515625
2294.824219	229594.109375
2293.291992	229055.031250
2291.758789	229631.046875
2290.224609	229016.906250
2288.690430	229464.953125
2287.156250	229521.812500
2285.621094	228612.109375
2284.085938	228587.359375
2282.550781	228098.390625
2281.014648	228969.234375
2279.478516	228449.343750
2277.941406	228819.812500
2276.404297	226696.750000
2274.866211	227157.234375
2273.328125	227548.906250
2271.790039	226210.906250
2270.250977	227230.562500
2268.711914	227072.296875
2267.172852	226594.562500
2265.632813	227409.531250
2264.091797	227099.750000
2262.551758	226658.140625
2261.009766	226320.968750
2259.468750	226461.015625
2257.926758	226348.671875
2256.383789	226353.515625
2254.841797	225920.703125
2253.297852	225525.515625
2251.754883	225748.406250
2250.210938	225759.828125
2248.666016	225566.437500
2247.121094	226140.046875
2245.576172	226081.437500
2244.030273	226199.859375
2242.484375	225894.453125
2240.938477	225683.328125
2239.391602	225363.562500
2237.843750	224687.031250
2236.296875	225431.593750
2234.749023	224719.687500
2233.200195	224838.093750
2231.651367	226118.406250
2230.102539	225218.875000
2228.552734	224927.187500
2227.002930	225139.265625
2225.452148	223222.312500
2223.901367	224070.750000
2222.350586	224124.234375
2220.798828	224407.390625
2219.246094	224080.671875
2217.694336	224211.656250
2216.141602	224284.375000
2214.587891	224890.296875
2213.034180	224636.406250
2211.480469	224319.640625
2209.925781	224114.437500
2208.371094	223454.078125
2206.815430	224230.406250
2205.259766	224034.984375
2203.704102	224838.140625
2202.147461	224673.281250
2200.590820	224237.625000
2199.033203	223030.125000
2197.475586	223563.515625
2195.917969	224191.656250
2194.359375	224128.531250
2192.800781	223637.125000
2191.241211	224533.515625
2189.681641	223831.406250
2188.121094	224518.093750
2186.560547	224702.546875
2185.000000	223121.296875
2183.438477	223812.375000
2181.876953	223468.062500
2180.314453	224107.250000
2178.751953	222945.343750
2177.189453	224213.812500
2175.625977	223696.265625
2174.061523	223663.718750
2172.498047	223859.015625
2170.933594	223611.421875
2169.368164	223203.546875
2167.802734	223623.234375
2166.237305	223428.734375
2164.670898	223150.968750
2163.104492	222878.140625
2161.537109	223206.093750
2159.969727	221777.187500
2158.402344	222502.250000
2156.833984	222333.812500
2155.264648	222776.687500
2153.696289	221723.625000
2152.125977	221547.484375
2150.556641	220936.515625
2148.986328	221845.953125
2147.415039	222630.250000
2145.844727	222137.640625
2144.272461	221424.875000
2142.701172	221660.906250
2141.128906	222219.265625
