#Time		#Wave		#Intensity
0.000000	3542.863281	18196.689453
0.000000	3541.629883	18078.662109
0.000000	3540.396484	18455.255859
0.000000	3539.162109	18317.058594
0.000000	3537.928711	18174.849609
0.000000	3536.693359	18498.310547
0.000000	3535.458984	18559.400391
0.000000	3534.223633	18388.773438
0.000000	3532.989258	18577.867188
0.000000	3531.752930	18590.138672
0.000000	3530.517578	18439.919922
0.000000	3529.281250	18332.404297
0.000000	3528.044922	18436.072266
0.000000	3526.808594	18578.259766
0.000000	3525.571289	18517.451172
0.000000	3524.333984	18503.332031
0.000000	3523.096680	18462.847656
0.000000	3521.859375	18562.308594
0.000000	3520.621094	18625.230469
0.000000	3519.382813	18598.929688
0.000000	3518.144531	18631.410156
0.000000	3516.906250	18734.794922
0.000000	3515.666992	18767.230469
0.000000	3514.427734	18473.560547
0.000000	3513.188477	18113.193359
0.000000	3511.948242	18659.960938
0.000000	3510.708008	18544.617188
0.000000	3509.467773	18488.005859
0.000000	3508.227539	18566.972656
0.000000	3506.986328	18532.626953
0.000000	3505.745117	18692.439453
0.000000	3504.503906	18532.720703
0.000000	3503.262695	18447.863281
0.000000	3502.020508	18641.941406
0.000000	3500.778320	18678.328125
0.000000	3499.535156	18890.449219
0.000000	3498.292969	18553.113281
0.000000	3497.049805	18851.996094
0.000000	3495.806641	19025.578125
0.000000	3494.563477	18629.892578
0.000000	3493.319336	18591.556641
0.000000	3492.075195	18829.636719
0.000000	3490.831055	18613.765625
0.000000	3489.585938	18797.285156
0.000000	3488.340820	18845.634766
0.000000	3487.095703	18823.410156
0.000000	3485.850586	18712.515625
0.000000	3484.604492	18728.607422
0.000000	3483.358398	18921.964844
0.000000	3482.112305	19083.011719
0.000000	3480.866211	18833.210938
0.000000	3479.619141	18845.228516
0.000000	3478.372070	18984.039063
0.000000	3477.125000	18824.968750
0.000000	3475.876953	18806.796875
0.000000	3474.629883	18730.296875
0.000000	3473.380859	18513.062500
0.000000	3472.132813	18820.669922
0.000000	3470.883789	18858.787109
0.000000	3469.634766	18697.929688
0.000000	3468.385742	18697.878906
0.000000	3467.136719	18938.878906
0.000000	3465.886719	18848.396484
0.000000	3464.636719	19037.048828
0.000000	3463.386719	18689.621094
0.000000	3462.135742	18531.005859
0.000000	3460.884766	19020.587891
0.000000	3459.633789	18779.712891
0.000000	3458.381836	18881.917969
0.000000	3457.130859	18992.097656
0.000000	3455.878906	18663.166016
0.000000	3454.625977	18693.164063
0.000000	3453.374023	18809.320313
0.000000	3452.121094	18915.404297
0.000000	3450.868164	19017.433594
0.000000	3449.614258	18813.009766
0.000000	3448.361328	19199.328125
0.000000	3447.107422	19030.980469
0.000000	3445.853516	18990.791016
0.000000	3444.598633	19080.677734
0.000000	3443.343750	19020.486328
0.000000	3442.088867	18800.316406
0.000000	3440.833984	18616.232422
0.000000	3439.578125	18782.080078
0.000000	3438.322266	19049.789063
0.000000	3437.066406	19043.613281
0.000000	3435.809570	19003.474609
0.000000	3434.553711	18657.748047
0.000000	3433.295898	18777.464844
0.000000	3432.039063	18795.302734
0.000000	3430.782227	19122.525391
0.000000	3429.524414	19024.529297
0.000000	3428.265625	19038.304688
0.000000	3427.007813	18988.240234
0.000000	3425.749023	19191.474609
0.000000	3424.490234	19237.101563
0.000000	3423.231445	19035.517578
0.000000	3421.971680	18845.976563
0.000000	3420.711914	19013.189453
0.000000	3419.452148	18819.750000
0.000000	3418.192383	19068.550781
0.000000	3416.931641	18903.056641
0.000000	3415.670898	18823.238281
0.000000	3414.409180	18815.107422
0.000000	3413.148438	18944.285156
0.000000	3411.886719	18822.724609
0.000000	3410.625000	18677.347656
0.000000	3409.362305	18862.144531
0.000000	3408.099609	19048.845703
0.000000	3406.836914	18704.734375
0.000000	3405.574219	18857.599609
0.000000	3404.311523	18968.669922
0.000000	3403.047852	18789.671875
0.000000	3401.783203	19091.359375
0.000000	3400.519531	18874.681641
0.000000	3399.254883	18638.248047
0.000000	3397.990234	18868.314453
0.000000	3396.725586	18925.650391
0.000000	3395.459961	18816.318359
0.000000	3394.194336	19022.386719
0.000000	3392.928711	18802.033203
0.000000	3391.663086	18766.146484
0.000000	3390.396484	19027.580078
0.000000	3389.129883	18870.777344
0.000000	3387.862305	18771.496094
0.000000	3386.595703	18739.601563
0.000000	3385.328125	18905.746094
0.000000	3384.060547	18658.027344
0.000000	3382.791992	18881.515625
0.000000	3381.523438	18914.921875
0.000000	3380.254883	18890.933594
0.000000	3378.986328	19046.960938
0.000000	3377.716797	19024.927734
0.000000	3376.447266	18558.031250
0.000000	3375.177734	18810.880859
0.000000	3373.908203	19012.234375
0.000000	3372.637695	18794.607422
0.000000	3371.367188	18737.085938
0.000000	3370.095703	18894.863281
0.000000	3368.825195	18624.087891
0.000000	3367.553711	18811.427734
0.000000	3366.282227	18740.130859
0.000000	3365.009766	18558.359375
0.000000	3363.737305	18794.904297
0.000000	3362.464844	18601.363281
0.000000	3361.192383	18796.376953
0.000000	3359.918945	18669.949219
0.000000	3358.645508	18640.158203
0.000000	3357.372070	18890.203125
0.000000	3356.097656	18799.296875
0.000000	3354.823242	18806.914063
0.000000	3353.548828	18692.429688
0.000000	3352.274414	18765.037109
0.000000	3350.999023	18861.228516
0.000000	3349.723633	18654.308594
0.000000	3348.447266	18614.718750
0.000000	3347.171875	18630.224609
0.000000	3345.895508	19062.646484
0.000000	3344.619141	18956.134766
0.000000	3343.341797	18651.128906
0.000000	3342.064453	18957.468750
0.000000	3340.787109	18925.712891
0.000000	3339.509766	18968.615234
0.000000	3338.231445	18720.826172
0.000000	3336.953125	19060.248047
0.000000	3335.674805	18879.291016
0.000000	3334.395508	18880.943359
0.000000	3333.117188	18898.289063
0.000000	3331.836914	18968.591797
0.000000	3330.557617	18927.066406
0.000000	3329.277344	18895.361328
0.000000	3327.997070	18706.830078
0.000000	3326.716797	18994.667969
0.000000	3325.435547	18663.144531
0.000000	3324.154297	18798.046875
0.000000	3322.873047	18762.478516
0.000000	3321.591797	18887.501953
0.000000	3320.309570	18787.316406
0.000000	3319.027344	18847.679688
0.000000	3317.744141	18727.974609
0.000000	3316.461914	18841.144531
0.000000	3315.178711	18850.591797
0.000000	3313.894531	18770.072266
0.000000	3312.611328	18908.568359
0.000000	3311.327148	18921.896484
0.000000	3310.042969	19058.335938
0.000000	3308.757813	19083.343750
0.000000	3307.472656	19110.291016
0.000000	3306.187500	19010.279297
0.000000	3304.902344	18996.224609
0.000000	3303.616211	18991.931641
0.000000	3302.330078	19016.916016
0.000000	3301.043945	19036.031250
0.000000	3299.757813	19098.054688
0.000000	3298.470703	18943.558594
0.000000	3297.183594	18750.134766
0.000000	3295.895508	19094.843750
0.000000	3294.607422	19250.339844
0.000000	3293.319336	19205.062500
0.000000	3292.031250	19089.669922
0.000000	3290.742188	18869.152344
0.000000	3289.454102	18977.816406
0.000000	3288.164063	19061.121094
0.000000	3286.875000	19056.800781
0.000000	3285.584961	18955.183594
0.000000	3284.294922	19133.759766
0.000000	3283.003906	19094.408203
0.000000	3281.713867	18891.724609
0.000000	3280.422852	19107.126953
0.000000	3279.130859	19174.705078
0.000000	3277.839844	19378.279297
0.000000	3276.547852	18993.083984
0.000000	3275.254883	19173.294922
0.000000	3273.962891	19596.164063
0.000000	3272.669922	19265.535156
0.000000	3271.376953	19175.748047
0.000000	3270.083008	19380.972656
0.000000	3268.790039	19355.220703
0.000000	3267.496094	19275.166016
0.000000	3266.201172	19152.480469
0.000000	3264.907227	19043.421875
0.000000	3263.612305	19087.542969
0.000000	3262.316406	19255.673828
0.000000	3261.021484	19189.285156
0.000000	3259.725586	19256.583984
0.000000	3258.429688	19465.222656
0.000000	3257.132813	19356.228516
0.000000	3255.836914	19318.904297
0.000000	3254.540039	19411.263672
0.000000	3253.242188	19277.195313
0.000000	3251.945313	19241.843750
0.000000	3250.647461	19343.818359
0.000000	3249.348633	19364.535156
0.000000	3248.050781	19342.712891
0.000000	3246.751953	19185.611328
0.000000	3245.453125	19258.515625
0.000000	3244.153320	19161.384766
0.000000	3242.853516	19423.529297
0.000000	3241.553711	19243.373047
0.000000	3240.253906	19387.615234
0.000000	3238.953125	19352.296875
0.000000	3237.652344	19133.681641
0.000000	3236.351563	19243.119141
0.000000	3235.049805	19366.005859
0.000000	3233.748047	19324.931641
0.000000	3232.446289	19443.880859
0.000000	3231.143555	19472.189453
0.000000	3229.840820	19394.500000
0.000000	3228.538086	19652.054688
0.000000	3227.235352	19447.236328
0.000000	3225.931641	19477.435547
0.000000	3224.627930	19349.753906
0.000000	3223.324219	19318.365234
0.000000	3222.019531	19308.156250
0.000000	3220.714844	19526.884766
0.000000	3219.410156	19353.140625
0.000000	3218.104492	19550.601563
0.000000	3216.798828	19357.701172
0.000000	3215.493164	19568.521484
0.000000	3214.186523	19458.332031
0.000000	3212.879883	19401.982422
0.000000	3211.573242	19282.273438
0.000000	3210.266602	19381.531250
0.000000	3208.958984	19167.804688
0.000000	3207.651367	19299.667969
0.000000	3206.343750	19348.955078
0.000000	3205.035156	19499.896484
0.000000	3203.726563	19340.037109
0.000000	3202.417969	19469.814453
0.000000	3201.108398	19519.005859
0.000000	3199.798828	19434.000000
0.000000	3198.489258	19303.041016
0.000000	3197.178711	19193.212891
0.000000	3195.868164	19363.087891
0.000000	3194.557617	19450.537109
0.000000	3193.247070	19093.767578
0.000000	3191.935547	19102.755859
0.000000	3190.624023	19134.703125
0.000000	3189.311523	19287.164063
0.000000	3188.000000	19286.531250
0.000000	3186.687500	19595.695313
0.000000	3185.374023	19375.119141
0.000000	3184.061523	19101.123047
0.000000	3182.748047	19603.121094
0.000000	3181.433594	19271.876953
0.000000	3180.120117	19343.820313
0.000000	3178.805664	19396.632813
0.000000	3177.491211	19413.140625
0.000000	3176.175781	19431.548828
0.000000	3174.860352	19312.544922
0.000000	3173.544922	19290.898438
0.000000	3172.229492	19379.890625
0.000000	3170.913086	19299.117188
0.000000	3169.596680	19458.605469
0.000000	3168.280273	19263.476563
0.000000	3166.962891	19175.156250
0.000000	3165.645508	19235.484375
0.000000	3164.327148	19231.017578
0.000000	3163.009766	19346.527344
0.000000	3161.691406	19252.548828
0.000000	3160.373047	19501.240234
0.000000	3159.053711	19249.312500
0.000000	3157.734375	19239.128906
0.000000	3156.415039	19223.242188
0.000000	3155.094727	19310.054688
0.000000	3153.774414	18938.617188
0.000000	3152.454102	19255.451172
0.000000	3151.133789	19370.693359
0.000000	3149.812500	19181.888672
0.000000	3148.491211	19314.187500
0.000000	3147.168945	19197.644531
0.000000	3145.847656	19077.355469
0.000000	3144.525391	19196.292969
0.000000	3143.202148	19279.115234
0.000000	3141.879883	19301.181641
0.000000	3140.556641	19205.632813
0.000000	3139.232422	18964.101563
0.000000	3137.909180	19276.304688
0.000000	3136.584961	19317.298828
0.000000	3135.259766	18984.941406
0.000000	3133.935547	19092.292969
0.000000	3132.610352	19203.380859
0.000000	3131.285156	19214.044922
0.000000	3129.958984	19166.009766
0.000000	3128.632813	19017.673828
0.000000	3127.306641	19094.603516
0.000000	3125.980469	19107.166016
0.000000	3124.653320	19015.687500
0.000000	3123.326172	19073.646484
0.000000	3121.998047	19018.136719
0.000000	3120.670898	18960.759766
0.000000	3119.341797	19404.197266
0.000000	3118.013672	19152.152344
0.000000	3116.684570	19183.556641
0.000000	3115.355469	19175.287109
0.000000	3114.026367	19248.201172
0.000000	3112.696289	19196.501953
0.000000	3111.366211	19229.746094
0.000000	3110.036133	19030.910156
0.000000	3108.705078	19196.207031
0.000000	3107.374023	19072.900391
0.000000	3106.042969	19409.673828
0.000000	3104.711914	19318.414063
0.000000	3103.379883	19359.105469
0.000000	3102.046875	19460.066406
0.000000	3100.714844	19323.646484
0.000000	3099.381836	19379.367188
0.000000	3098.048828	19276.914063
0.000000	3096.714844	19370.261719
0.000000	3095.380859	19188.818359
0.000000	3094.046875	19174.900391
0.000000	3092.712891	19200.486328
0.000000	3091.377930	19286.234375
0.000000	3090.042969	19159.494141
0.000000	3088.707031	19361.742188
0.000000	3087.372070	19325.238281
0.000000	3086.036133	19271.843750
0.000000	3084.699219	19177.148438
0.000000	3083.362305	19347.269531
0.000000	3082.025391	19483.515625
0.000000	3080.688477	19670.373047
0.000000	3079.350586	19455.568359
0.000000	3078.012695	19344.046875
0.000000	3076.674805	19416.386719
0.000000	3075.335938	19357.425781
0.000000	3073.997070	19622.822266
0.000000	3072.658203	19543.220703
0.000000	3071.318359	19532.986328
0.000000	3069.978516	19569.589844
0.000000	3068.638672	19555.605469
0.000000	3067.298828	19513.535156
0.000000	3065.958008	19497.693359
0.000000	3064.616211	19590.412109
0.000000	3063.275391	19567.070313
0.000000	3061.933594	19390.335938
0.000000	3060.591797	19628.892578
0.000000	3059.249023	19414.824219
0.000000	3057.906250	19286.851563
0.000000	3056.563477	19553.291016
0.000000	3055.219727	19574.822266
0.000000	3053.876953	19749.527344
0.000000	3052.532227	19552.482422
0.000000	3051.188477	19706.566406
0.000000	3049.843750	19688.830078
0.000000	3048.499023	19648.705078
0.000000	3047.153320	19776.527344
0.000000	3045.808594	19583.431641
0.000000	3044.461914	19472.484375
0.000000	3043.116211	19779.248047
0.000000	3041.769531	19532.220703
0.000000	3040.422852	19415.767578
0.000000	3039.076172	19897.464844
0.000000	3037.728516	19510.871094
0.000000	3036.380859	19560.248047
0.000000	3035.032227	19391.755859
0.000000	3033.683594	19366.673828
0.000000	3032.334961	19416.042969
0.000000	3030.986328	19487.714844
0.000000	3029.636719	19717.460938
0.000000	3028.287109	19816.917969
0.000000	3026.937500	19518.443359
0.000000	3025.586914	19443.167969
0.000000	3024.236328	19577.921875
0.000000	3022.885742	19523.099609
0.000000	3021.534180	19327.132813
0.000000	3020.182617	19610.375000
0.000000	3018.830078	19499.880859
0.000000	3017.478516	19627.025391
0.000000	3016.125977	19434.923828
0.000000	3014.772461	19619.531250
0.000000	3013.419922	19314.375000
0.000000	3012.066406	19385.802734
0.000000	3010.711914	19401.574219
0.000000	3009.358398	19630.490234
0.000000	3008.003906	19336.732422
0.000000	3006.648438	19467.361328
0.000000	3005.292969	19464.570313
0.000000	3003.937500	19341.414063
0.000000	3002.582031	19283.109375
0.000000	3001.225586	19415.470703
0.000000	2999.869141	19486.701172
0.000000	2998.512695	19396.949219
0.000000	2997.155273	19482.943359
0.000000	2995.797852	19311.869141
0.000000	2994.440430	19307.255859
0.000000	2993.082031	19587.263672
0.000000	2991.723633	19349.763672
0.000000	2990.365234	19169.640625
0.000000	2989.005859	19399.609375
0.000000	2987.646484	19300.800781
0.000000	2986.287109	19351.562500
0.000000	2984.926758	19385.687500
0.000000	2983.566406	19178.085938
0.000000	2982.206055	19267.572266
0.000000	2980.844727	19499.019531
0.000000	2979.483398	19354.220703
0.000000	2978.122070	19344.052734
0.000000	2976.759766	19516.337891
0.000000	2975.397461	19266.611328
0.000000	2974.035156	19155.156250
0.000000	2972.671875	19518.878906
0.000000	2971.308594	19300.626953
0.000000	2969.945313	19227.890625
0.000000	2968.581055	19407.302734
0.000000	2967.216797	19505.675781
0.000000	2965.852539	19482.599609
0.000000	2964.487305	19556.996094
0.000000	2963.122070	19423.605469
0.000000	2961.756836	19396.884766
0.000000	2960.390625	19278.292969
0.000000	2959.024414	19503.306641
0.000000	2957.658203	19550.048828
0.000000	2956.291016	19571.056641
0.000000	2954.923828	19546.158203
0.000000	2953.556641	19480.888672
0.000000	2952.188477	19450.513672
0.000000	2950.820313	19377.958984
0.000000	2949.452148	19459.496094
0.000000	2948.083008	19357.630859
0.000000	2946.713867	19461.128906
0.000000	2945.343750	19592.068359
0.000000	2943.974609	19653.312500
0.000000	2942.604492	19225.417969
0.000000	2941.233398	19526.634766
0.000000	2939.862305	19472.492188
0.000000	2938.491211	19667.328125
0.000000	2937.120117	19669.908203
0.000000	2935.748047	19591.978516
0.000000	2934.375977	19521.402344
0.000000	2933.003906	19509.378906
0.000000	2931.630859	19822.802734
0.000000	2930.257813	19856.404297
0.000000	2928.883789	19676.177734
0.000000	2927.509766	19804.798828
0.000000	2926.135742	20010.072266
0.000000	2924.761719	19811.671875
0.000000	2923.386719	19735.683594
0.000000	2922.011719	19880.585938
0.000000	2920.635742	19848.410156
0.000000	2919.260742	19650.230469
0.000000	2917.883789	19698.375000
0.000000	2916.507813	19844.960938
0.000000	2915.130859	19657.857422
0.000000	2913.753906	19773.394531
0.000000	2912.375977	19692.080078
0.000000	2910.998047	19603.515625
0.000000	2909.620117	19871.962891
0.000000	2908.242188	19925.417969
0.000000	2906.863281	19913.312500
0.000000	2905.483398	19790.193359
0.000000	2904.104492	19863.638672
0.000000	2902.724609	19791.521484
0.000000	2901.344727	19803.093750
0.000000	2899.963867	19969.203125
0.000000	2898.583008	19804.400391
0.000000	2897.202148	19997.685547
0.000000	2895.820313	19629.462891
0.000000	2894.438477	20191.427734
0.000000	2893.056641	19787.011719
0.000000	2891.673828	20059.990234
0.000000	2890.291016	19879.056641
0.000000	2888.908203	19854.269531
0.000000	2887.524414	19876.662109
0.000000	2886.140625	19743.056641
0.000000	2884.755859	20100.929688
0.000000	2883.372070	20088.794922
0.000000	2881.987305	19913.542969
0.000000	2880.601563	20118.898438
0.000000	2879.215820	20229.949219
0.000000	2877.830078	19904.458984
0.000000	2876.444336	20096.986328
0.000000	2875.057617	19940.035156
0.000000	2873.670898	19794.019531
0.000000	2872.283203	20037.087891
0.000000	2870.895508	20247.476563
0.000000	2869.507813	19940.529297
0.000000	2868.120117	19960.988281
0.000000	2866.731445	20015.779297
0.000000	2865.342773	19985.603516
0.000000	2863.953125	19847.037109
0.000000	2862.563477	19686.859375
0.000000	2861.173828	19774.162109
0.000000	2859.783203	19700.736328
0.000000	2858.392578	19677.884766
0.000000	2857.001953	19671.281250
0.000000	2855.610352	19834.265625
0.000000	2854.218750	19607.578125
0.000000	2852.827148	20006.716797
0.000000	2851.434570	19785.500000
0.000000	2850.041992	19989.744141
0.000000	2848.649414	19583.041016
0.000000	2847.255859	19632.304688
0.000000	2845.862305	19654.525391
0.000000	2844.467773	19550.693359
0.000000	2843.073242	19639.525391
0.000000	2841.678711	19663.521484
0.000000	2840.284180	19676.708984
0.000000	2838.888672	19447.046875
0.000000	2837.493164	19472.865234
0.000000	2836.096680	19601.152344
0.000000	2834.700195	19501.091797
0.000000	2833.303711	19526.871094
0.000000	2831.906250	19297.517578
0.000000	2830.509766	19443.673828
0.000000	2829.111328	19415.572266
0.000000	2827.713867	19256.423828
0.000000	2826.315430	19522.732422
0.000000	2824.916016	19510.775391
0.000000	2823.517578	19339.156250
0.000000	2822.118164	19262.677734
0.000000	2820.717773	19553.820313
0.000000	2819.317383	19260.410156
0.000000	2817.916992	19481.509766
0.000000	2816.516602	19227.675781
0.000000	2815.115234	19206.839844
0.000000	2813.713867	19318.539063
0.000000	2812.311523	19380.046875
0.000000	2810.909180	19343.072266
0.000000	2809.506836	19349.064453
0.000000	2808.104492	19465.978516
0.000000	2806.701172	19284.117188
0.000000	2805.296875	19322.302734
0.000000	2803.893555	19253.195313
0.000000	2802.489258	19532.664063
0.000000	2801.084961	19479.619141
0.000000	2799.679688	19321.191406
0.000000	2798.274414	19314.658203
0.000000	2796.868164	19079.564453
0.000000	2795.462891	19190.912109
0.000000	2794.056641	19334.330078
0.000000	2792.649414	19440.203125
0.000000	2791.242188	19258.818359
0.000000	2789.834961	19164.908203
0.000000	2788.427734	19411.597656
0.000000	2787.019531	19565.470703
0.000000	2785.611328	19476.894531
0.000000	2784.202148	19445.375000
0.000000	2782.792969	19365.775391
0.000000	2781.383789	19320.046875
0.000000	2779.973633	19329.533203
0.000000	2778.563477	19262.472656
0.000000	2777.153320	19432.117188
0.000000	2775.742188	19345.492188
0.000000	2774.331055	19472.343750
0.000000	2772.918945	19375.078125
0.000000	2771.507813	19556.962891
0.000000	2770.095703	19313.982422
0.000000	2768.682617	19474.466797
0.000000	2767.269531	19263.597656
0.000000	2765.856445	19502.156250
0.000000	2764.442383	19492.017578
0.000000	2763.028320	19524.484375
0.000000	2761.614258	19469.972656
0.000000	2760.200195	19555.652344
0.000000	2758.785156	19595.167969
0.000000	2757.369141	19639.982422
0.000000	2755.953125	19486.205078
0.000000	2754.537109	19309.458984
0.000000	2753.121094	19423.416016
0.000000	2751.704102	19280.429688
0.000000	2750.287109	19553.738281
0.000000	2748.869141	19490.468750
0.000000	2747.452148	19584.785156
0.000000	2746.033203	19549.855469
0.000000	2744.615234	19833.433594
0.000000	2743.196289	19766.613281
0.000000	2741.777344	19786.480469
0.000000	2740.357422	19590.628906
0.000000	2738.937500	19529.214844
0.000000	2737.516602	19745.283203
0.000000	2736.096680	19697.990234
0.000000	2734.675781	19535.906250
0.000000	2733.253906	19631.724609
0.000000	2731.832031	19614.501953
0.000000	2730.410156	19706.720703
0.000000	2728.988281	19634.781250
0.000000	2727.565430	19481.724609
0.000000	2726.141602	19501.585938
0.000000	2724.718750	19510.857422
0.000000	2723.294922	19775.736328
0.000000	2721.870117	19548.765625
0.000000	2720.446289	19617.919922
0.000000	2719.021484	19607.767578
0.000000	2717.595703	19666.300781
0.000000	2716.169922	19497.677734
0.000000	2714.744141	19769.193359
0.000000	2713.318359	19444.001953
0.000000	2711.891602	19495.472656
0.000000	2710.463867	19430.828125
0.000000	2709.037109	19626.466797
0.000000	2707.609375	19509.076172
0.000000	2706.181641	19671.201172
0.000000	2704.752930	19871.902344
0.000000	2703.324219	19375.076172
0.000000	2701.894531	19614.384766
0.000000	2700.464844	19669.207031
0.000000	2699.035156	19627.451172
0.000000	2697.605469	19445.314453
0.000000	2696.174805	19817.705078
0.000000	2694.744141	19511.066406
0.000000	2693.312500	19448.339844
0.000000	2691.880859	19546.939453
0.000000	2690.449219	19485.984375
0.000000	2689.016602	19617.816406
0.000000	2687.583984	19395.691406
0.000000	2686.150391	19658.839844
0.000000	2684.717773	19186.408203
0.000000	2683.283203	19591.275391
0.000000	2681.849609	19483.130859
0.000000	2680.415039	19611.257813
0.000000	2678.980469	19448.929688
0.000000	2677.544922	19664.439453
0.000000	2676.109375	19663.033203
0.000000	2674.673828	19474.587891
0.000000	2673.237305	19583.322266
0.000000	2671.800781	19636.093750
0.000000	2670.363281	19501.937500
0.000000	2668.925781	19397.533203
0.000000	2667.488281	19424.117188
0.000000	2666.050781	19440.212891
0.000000	2664.612305	19403.949219
0.000000	2663.172852	19350.257813
0.000000	2661.734375	19396.003906
0.000000	2660.294922	19541.111328
0.000000	2658.854492	19459.529297
0.000000	2657.414063	19470.351563
0.000000	2655.973633	19498.589844
0.000000	2654.533203	19333.460938
0.000000	2653.091797	19443.564453
0.000000	2651.650391	19431.738281
0.000000	2650.208008	19466.912109
0.000000	2648.765625	19618.658203
0.000000	2647.323242	19679.861328
0.000000	2645.879883	19688.851563
0.000000	2644.436523	19579.593750
0.000000	2642.992188	19656.398438
0.000000	2641.547852	19387.304688
0.000000	2640.103516	19398.087891
0.000000	2638.659180	19537.412109
0.000000	2637.213867	19496.048828
0.000000	2635.767578	19336.638672
0.000000	2634.321289	19592.167969
0.000000	2632.875000	19691.382813
0.000000	2631.428711	19658.689453
0.000000	2629.981445	19317.265625
0.000000	2628.534180	19465.023438
0.000000	2627.085938	19562.427734
0.000000	2625.637695	19586.986328
0.000000	2624.189453	19618.462891
0.000000	2622.740234	19720.947266
0.000000	2621.291016	19612.085938
0.000000	2619.841797	19646.990234
0.000000	2618.391602	19851.513672
0.000000	2616.941406	19846.533203
0.000000	2615.490234	19876.154297
0.000000	2614.040039	19592.677734
0.000000	2612.587891	19888.656250
0.000000	2611.136719	19897.492188
0.000000	2609.684570	19797.429688
0.000000	2608.231445	19607.562500
0.000000	2606.778320	19445.427734
0.000000	2605.325195	19480.265625
0.000000	2603.872070	19625.591797
0.000000	2602.417969	19370.351563
0.000000	2600.962891	19486.289063
0.000000	2599.508789	19438.253906
0.000000	2598.053711	19450.617188
0.000000	2596.597656	19537.123047
0.000000	2595.142578	19561.519531
0.000000	2593.685547	19430.771484
0.000000	2592.229492	19263.898438
0.000000	2590.772461	19464.062500
0.000000	2589.315430	19665.845703
0.000000	2587.857422	19517.976563
0.000000	2586.399414	19495.847656
0.000000	2584.941406	19408.326172
0.000000	2583.482422	19561.736328
0.000000	2582.023438	19469.080078
0.000000	2580.563477	19462.455078
0.000000	2579.103516	19529.761719
0.000000	2577.643555	19462.960938
0.000000	2576.182617	19633.337891
0.000000	2574.721680	19506.410156
0.000000	2573.260742	19455.117188
0.000000	2571.798828	19330.009766
0.000000	2570.336914	19584.361328
0.000000	2568.874023	19644.640625
0.000000	2567.411133	19505.847656
0.000000	2565.948242	19610.712891
0.000000	2564.484375	19405.111328
0.000000	2563.020508	19324.773438
0.000000	2561.556641	19565.015625
0.000000	2560.091797	19339.009766
0.000000	2558.626953	19577.410156
0.000000	2557.161133	19495.388672
0.000000	2555.695313	19331.212891
0.000000	2554.229492	19386.248047
0.000000	2552.762695	19571.332031
0.000000	2551.295898	19420.943359
0.000000	2549.829102	19409.193359
0.000000	2548.361328	19583.861328
0.000000	2546.892578	19344.667969
0.000000	2545.424805	19444.048828
0.000000	2543.956055	19252.859375
0.000000	2542.486328	19420.548828
0.000000	2541.017578	19157.718750
0.000000	2539.547852	19513.185547
0.000000	2538.077148	19269.238281
0.000000	2536.606445	19366.769531
0.000000	2535.135742	19235.599609
0.000000	2533.664063	19327.968750
0.000000	2532.192383	19225.863281
0.000000	2530.720703	19338.644531
0.000000	2529.248047	19463.298828
0.000000	2527.775391	19333.962891
0.000000	2526.301758	19390.402344
0.000000	2524.828125	19027.792969
0.000000	2523.354492	19361.847656
0.000000	2521.879883	19171.373047
0.000000	2520.405273	19163.111328
0.000000	2518.929688	19493.468750
0.000000	2517.455078	19434.089844
0.000000	2515.978516	19322.015625
0.000000	2514.502930	19300.113281
0.000000	2513.026367	19254.421875
0.000000	2511.548828	19088.091797
0.000000	2510.071289	19316.013672
0.000000	2508.593750	19370.564453
0.000000	2507.116211	19335.082031
0.000000	2505.637695	19340.361328
0.000000	2504.158203	19388.068359
0.000000	2502.679688	19247.398438
0.000000	2501.200195	19356.173828
0.000000	2499.719727	19327.513672
0.000000	2498.239258	19236.132813
0.000000	2496.758789	19204.125000
0.000000	2495.277344	19226.361328
0.000000	2493.795898	19096.101563
0.000000	2492.314453	19216.593750
0.000000	2490.832031	19138.892578
0.000000	2489.349609	19057.845703
0.000000	2487.867188	19210.408203
0.000000	2486.383789	19325.664063
0.000000	2484.899414	19286.916016
0.000000	2483.415039	19364.884766
0.000000	2481.930664	19268.654297
0.000000	2480.446289	19285.728516
0.000000	2478.960938	19356.871094
0.000000	2477.475586	19159.337891
0.000000	2475.989258	19240.607422
0.000000	2474.502930	19418.087891
0.000000	2473.016602	19273.019531
0.000000	2471.529297	19502.720703
0.000000	2470.041992	19426.884766
0.000000	2468.553711	19430.373047
0.000000	2467.065430	19138.714844
0.000000	2465.577148	19422.162109
0.000000	2464.087891	19349.789063
0.000000	2462.598633	19201.613281
0.000000	2461.108398	19493.248047
0.000000	2459.618164	19090.765625
0.000000	2458.127930	19346.912109
0.000000	2456.636719	19274.640625
0.000000	2455.145508	19318.535156
0.000000	2453.654297	19426.349609
0.000000	2452.162109	19303.638672
0.000000	2450.669922	19283.578125
0.000000	2449.176758	19497.238281
0.000000	2447.683594	19438.474609
0.000000	2446.189453	19183.119141
0.000000	2444.696289	19357.992188
0.000000	2443.201172	19628.517578
0.000000	2441.707031	19338.037109
0.000000	2440.211914	19034.273438
0.000000	2438.715820	19261.029297
0.000000	2437.220703	19311.484375
0.000000	2435.723633	19321.650391
0.000000	2434.227539	19304.976563
0.000000	2432.730469	19241.361328
0.000000	2431.233398	19316.904297
0.000000	2429.735352	19283.480469
0.000000	2428.237305	19291.957031
0.000000	2426.738281	19348.998047
0.000000	2425.239258	19243.582031
0.000000	2423.740234	19278.841797
0.000000	2422.240234	19084.787109
0.000000	2420.740234	19140.144531
0.000000	2419.240234	19100.121094
0.000000	2417.739258	19138.716797
0.000000	2416.238281	19150.541016
0.000000	2414.736328	19043.679688
0.000000	2413.234375	19197.560547
0.000000	2411.731445	19179.283203
0.000000	2410.229492	19122.597656
0.000000	2408.725586	19094.324219
0.000000	2407.222656	19141.187500
0.000000	2405.718750	19146.300781
0.000000	2404.213867	19044.623047
0.000000	2402.708984	19229.910156
0.000000	2401.204102	19323.378906
0.000000	2399.699219	19170.042969
0.000000	2398.193359	18990.115234
0.000000	2396.686523	19123.560547
0.000000	2395.179688	19145.316406
0.000000	2393.672852	19147.072266
0.000000	2392.166016	19212.099609
0.000000	2390.658203	19137.257813
0.000000	2389.149414	19200.585938
0.000000	2387.641602	19184.015625
0.000000	2386.131836	19210.701172
0.000000	2384.623047	19164.199219
0.000000	2383.113281	19037.917969
0.000000	2381.603516	19107.830078
0.000000	2380.092773	19117.882813
0.000000	2378.582031	18921.931641
0.000000	2377.070313	19099.767578
0.000000	2375.558594	19149.660156
0.000000	2374.046875	19192.884766
0.000000	2372.534180	18930.724609
0.000000	2371.021484	19088.458984
0.000000	2369.507813	19201.328125
0.000000	2367.994141	19188.105469
0.000000	2366.480469	18952.732422
0.000000	2364.965820	19070.515625
0.000000	2363.451172	19030.818359
0.000000	2361.936523	19166.738281
0.000000	2360.420898	19002.822266
0.000000	2358.904297	19087.347656
0.000000	2357.388672	19090.718750
0.000000	2355.872070	19133.802734
0.000000	2354.354492	18907.187500
0.000000	2352.836914	19018.107422
0.000000	2351.319336	18852.816406
0.000000	2349.800781	18937.240234
0.000000	2348.282227	19203.421875
0.000000	2346.763672	18986.984375
0.000000	2345.244141	18952.365234
0.000000	2343.723633	19112.636719
0.000000	2342.204102	18855.105469
0.000000	2340.682617	19036.775391
0.000000	2339.162109	19025.275391
0.000000	2337.640625	19025.326172
0.000000	2336.119141	18827.453125
0.000000	2334.596680	18885.265625
0.000000	2333.074219	18949.638672
0.000000	2331.550781	18982.666016
0.000000	2330.027344	18928.345703
0.000000	2328.503906	19289.156250
0.000000	2326.979492	19053.632813
0.000000	2325.455078	18699.689453
0.000000	2323.930664	18874.281250
0.000000	2322.405273	19109.666016
0.000000	2320.878906	19012.613281
0.000000	2319.353516	19029.093750
0.000000	2317.826172	19152.441406
0.000000	2316.299805	18872.980469
0.000000	2314.772461	18756.361328
0.000000	2313.245117	18715.378906
0.000000	2311.716797	18887.949219
0.000000	2310.188477	19053.861328
0.000000	2308.659180	19022.677734
0.000000	2307.129883	18909.443359
0.000000	2305.600586	18758.525391
0.000000	2304.070313	18699.550781
0.000000	2302.540039	18817.726563
0.000000	2301.008789	18942.398438
0.000000	2299.477539	18758.835938
0.000000	2297.946289	18660.583984
0.000000	2296.414063	18722.937500
0.000000	2294.881836	18703.361328
0.000000	2293.348633	18549.519531
0.000000	2291.815430	18800.109375
0.000000	2290.282227	18834.533203
0.000000	2288.748047	18927.839844
0.000000	2287.213867	18651.406250
0.000000	2285.678711	18767.605469
0.000000	2284.143555	18689.181641
0.000000	2282.607422	18656.564453
0.000000	2281.072266	18717.105469
0.000000	2279.535156	18862.566406
0.000000	2277.999023	18707.427734
0.000000	2276.460938	18714.021484
0.000000	2274.923828	18767.949219
0.000000	2273.385742	18683.126953
0.000000	2271.847656	18608.136719
0.000000	2270.308594	18547.863281
0.000000	2268.769531	18588.724609
0.000000	2267.229492	18737.164063
0.000000	2265.689453	18645.931641
0.000000	2264.149414	18807.310547
0.000000	2262.608398	18758.458984
0.000000	2261.067383	18778.031250
0.000000	2259.526367	18654.312500
0.000000	2257.984375	18765.054688
0.000000	2256.441406	18660.925781
0.000000	2254.898438	18688.632813
0.000000	2253.355469	18721.201172
0.000000	2251.812500	18636.673828
0.000000	2250.268555	18609.085938
0.000000	2248.723633	18521.376953
0.000000	2247.178711	18618.943359
0.000000	2245.633789	18705.083984
0.000000	2244.087891	18766.820313
0.000000	2242.541992	18593.105469
0.000000	2240.996094	18818.771484
0.000000	2239.449219	18807.402344
0.000000	2237.902344	18797.660156
0.000000	2236.354492	18783.052734
0.000000	2234.806641	18559.285156
0.000000	2233.257813	18784.660156
0.000000	2231.708984	18804.095703
0.000000	2230.160156	18598.312500
0.000000	2228.610352	18826.736328
0.000000	2227.060547	18721.451172
0.000000	2225.509766	18562.794922
0.000000	2223.958984	18703.644531
0.000000	2222.408203	18593.613281
0.000000	2220.856445	18710.113281
0.000000	2219.304688	18731.130859
0.000000	2217.751953	18706.867188
0.000000	2216.199219	18821.625000
0.000000	2214.645508	18831.281250
0.000000	2213.092773	18698.759766
0.000000	2211.538086	18622.835938
0.000000	2209.983398	18677.744141
0.000000	2208.428711	18698.720703
0.000000	2206.874023	18655.128906
0.000000	2205.318359	18906.826172
0.000000	2203.761719	18763.189453
0.000000	2202.206055	18663.166016
0.000000	2200.648438	18806.640625
0.000000	2199.091797	18574.486328
0.000000	2197.534180	18692.123047
0.000000	2195.975586	18692.097656
0.000000	2194.416992	18646.972656
0.000000	2192.858398	18878.812500
0.000000	2191.298828	18788.587891
0.000000	2189.739258	18806.232422
0.000000	2188.179688	18579.314453
0.000000	2186.619141	18695.117188
0.000000	2185.057617	18709.548828
0.000000	2183.497070	18825.251953
0.000000	2181.934570	18862.140625
0.000000	2180.373047	18733.509766
0.000000	2178.810547	18572.816406
0.000000	2177.247070	18863.476563
0.000000	2175.683594	18669.113281
0.000000	2174.120117	18778.214844
0.000000	2172.555664	18832.699219
0.000000	2170.991211	18970.576172
0.000000	2169.426758	18726.660156
0.000000	2167.861328	18813.179688
0.000000	2166.295898	18793.851563
0.000000	2164.729492	18769.724609
